0.024166
0.054932
0.108277
0.159153
0.178133
0.170538
0.154063
0.111646
0.087437
0.044762
-0.002463
-0.052496
-0.104399
-0.130972
-0.176182
-0.185077
-0.173654
-0.140214
-0.101734
-0.054440
-0.015083
0.026348
0.072032
0.110199
0.139700
0.134256
0.140749
0.110795
0.082497
0.029158
-0.022573
-0.087913
-0.125337
-0.144939
-0.183754
-0.194691
-0.199649
-0.163330
-0.131562
-0.081547
-0.018585
0.031046
0.072587
0.108377
0.147604
0.168633
0.157947
0.132390
0.078582
0.029236
-0.027639
-0.049903
-0.100130
-0.126256
-0.161203
-0.177384
-0.158486
-0.143632
-0.118592
-0.081041
-0.045379
0.018076
0.080864
0.121805
0.141915
0.159293
0.133725
0.112569
0.113900
0.085376
0.024615
-0.049095
-0.095705
-0.128415
-0.132495
-0.149566
-0.136963
-0.121932
-0.091801
-0.043743
-0.017774
0.044261
0.104984
0.140068
0.156917
0.161322
0.167551
0.156620
0.130998
0.096461
0.068639
0.009787
-0.051676
-0.084354
-0.086073
-0.080356
-0.085920
-0.077883
-0.061754
-0.003115
0.046804
0.087441
0.129482
0.166155
0.182811
0.205288
0.203098
0.190309
0.149729
0.094164
0.067395
0.018554
-0.040073
-0.071125
-0.065904
-0.065005
-0.064527
-0.020061
-0.012093
0.026864
0.064168
0.119254
0.176222
0.206638
0.219129
0.229472
0.222613
0.193574
0.166340
0.117217
0.080365
0.051916
0.009164
-0.036349
-0.049166
-0.045156
-0.035315
-0.034595
-0.002781
0.067751
0.113180
0.137082
0.179847
0.216548
0.245950
0.243978
0.225679
0.191343
0.167094
0.126821
0.079554
0.049505
0.005694
-0.025338
-0.058603
-0.087085
-0.069853
-0.044455
-0.021025
0.030119
0.087998
0.144769
0.190766
0.219932
0.223314
0.231488
0.231779
0.203098
0.174430
0.104099
0.070839
0.029786
-0.033213
-0.073716
-0.087567
-0.093672
-0.081492
-0.061044
-0.054312
-0.001435
0.057552
0.090284
0.146444
0.186366
0.205943
0.171129
0.180103
0.175038
0.159757
0.095370
0.035917
0.002581
-0.056760
-0.123973
-0.153650
-0.151235
-0.126350
-0.107758
-0.086015
-0.031761
0.019745
0.075789
0.102733
0.120948
0.150433
0.177184
0.155147
0.146662
0.107917
0.064446
0.013491
-0.035702
-0.083720
-0.121563
-0.142482
-0.165991
-0.168032
-0.136256
-0.110008
-0.072672
-0.024777
0.027355
0.063547
0.108680
0.137256
0.141320
0.126791
0.091623
0.080550
0.023619
-0.008955
-0.055484
-0.090658
-0.128962
-0.149665
-0.164740
-0.156972
-0.137924
-0.113015
-0.064176
-0.026102
0.016198
0.047690
0.090130
0.118852
0.120163
0.127145
0.098592
0.069789
0.022136
-0.022984
-0.067888
-0.103969
-0.115408
-0.156630
-0.179097
-0.136745
-0.125569
-0.109052
-0.068717
-0.010861
0.038687
0.080511
0.111427
0.128871
0.143613
0.131747
0.114433
0.079692
0.030635
-0.056947
-0.103336
-0.112184
-0.129753
-0.144735
-0.158127
-0.156715
-0.135916
-0.086408
-0.026383
0.006240
0.040877
0.080776
0.122516
0.143257
0.147344
0.130736
0.111056
0.064314
0.028421
-0.015679
-0.060437
-0.106604
-0.166922
-0.173155
-0.166731
-0.143263
-0.110796
-0.087090
-0.064446
-0.018268
0.038917
0.095286
0.132550
0.122492
0.135914
0.129302
0.116839
0.091950
0.039513
-0.008187
-0.053239
-0.092668
-0.134650
-0.162015
-0.173499
-0.165160
-0.150951
-0.117399
-0.057348
-0.003531
0.062516
0.097804
0.127751
0.146792
0.165935
0.151302
0.109696
0.097924
0.051529
-0.023708
-0.060289
-0.097415
-0.137818
-0.184924
-0.184197
-0.184826
-0.166868
-0.130180
-0.072981
-0.024624
0.014263
0.074092
0.119009
0.140932
0.145637
0.135726
0.127548
0.100551
0.048825
0.007993
-0.060978
-0.114220
-0.152061
-0.192672
-0.192289
-0.172615
-0.156591
-0.125239
-0.100003
-0.046858
0.023926
0.062662
0.104111
0.123968
0.148770
0.136990
0.102567
0.076640
0.027574
-0.027376
-0.072290
-0.106353
-0.142003
-0.177822
-0.187363
-0.176998
-0.165185
-0.129966
-0.075643
-0.016604
0.010767
0.062675
0.103140
0.125043
0.110987
0.122384
0.121024
0.045696
-0.001978
-0.036216
-0.063275
-0.110954
-0.142269
-0.179157
-0.211522
-0.205335
-0.159682
-0.099904
-0.063525
-0.014526
0.029657
0.058963
0.093118
0.110853
0.099671
0.077977
0.066140
0.038071
-0.005140
-0.053731
-0.069279
-0.112134
-0.152551
-0.180417
-0.193986
-0.183022
-0.160832
-0.121152
-0.057123
-0.024090
0.029989
0.066933
0.097799
0.110603
0.113869
0.104724
0.071963
0.044148
-0.024683
-0.066532
-0.106432
-0.151543
-0.184090
-0.187861
-0.191408
-0.175083
-0.147776
-0.123232
-0.082796
-0.024287
0.036995
0.077715
0.114556
0.121828
0.121188
0.095957
0.065146
0.025320
-0.023842
-0.057071
-0.110520
-0.145269
-0.184829
-0.184789
-0.185797
-0.184591
-0.192056
-0.125733
-0.051016
0.022403
0.065091
0.094720
0.110424
0.133826
0.154704
0.154262
0.115425
0.076901
0.021990
-0.028219
-0.064989
-0.125845
-0.158898
-0.156304
-0.165305
-0.152545
-0.153969
-0.090357
-0.044829
-0.008079
0.029801
0.089926
0.139155
0.160950
0.143727
0.130798
0.114713
0.103427
0.043239
0.001177
-0.044255
-0.081781
-0.108129
-0.131150
-0.182480
-0.186312
-0.139573
-0.084779
-0.029601
0.009901
0.053087
0.115867
0.145572
0.141954
0.152275
0.138082
0.130031
0.082725
0.019403
-0.040195
-0.090396
-0.124208
-0.149163
-0.165076
-0.186570
-0.189695
-0.172501
-0.155706
-0.099806
-0.042905
0.001362
0.045511
0.089754
0.109165
0.113211
0.098549
0.089349
0.060865
-0.011124
-0.067455
-0.103052
-0.154005
-0.188035
-0.201274
-0.213331
-0.198999
-0.173317
-0.163645
-0.145698
-0.082266
-0.019715
0.018943
0.051294
0.058472
0.059512
0.054869
0.047127
0.007835
-0.043515
-0.096426
-0.140460
-0.192044
-0.215455
-0.213763
-0.239756
-0.236886
-0.206923
-0.173937
-0.123927
-0.082364
-0.045137
-0.009603
0.026735
0.047937
0.053766
0.046793
0.030485
-0.012045
-0.056875
-0.103036
-0.158026
-0.190349
-0.224919
-0.234981
-0.241156
-0.210821
-0.189158
-0.161067
-0.147841
-0.107613
-0.049110
0.018837
0.025133
0.040721
0.063776
0.042784
0.021587
-0.017249
-0.074383
-0.105420
-0.140799
-0.187477
-0.221367
-0.250825
-0.256468
-0.241650
-0.214872
-0.186729
-0.137126
-0.082810
-0.043752
0.001206
0.044786
0.041088
0.031199
0.022249
-0.009223
-0.029117
-0.058484
-0.104214
-0.142193
-0.187595
-0.225005
-0.234158
-0.222369
-0.190239
-0.151434
-0.105126
-0.077508
-0.029751
0.069979
0.132930
0.180367
0.217222
0.240077
0.248572
0.248660
0.228323
0.217589
0.187683
0.200138
0.194621
0.200232
0.199550
0.242148
0.276071
0.342037
0.418409
0.502664
0.599919
0.691219
0.776072
0.850260
0.891620
0.883691
0.869611
0.856118
0.812358
0.734076
0.672769
0.585165
0.524005
0.429065
0.326696
0.263998
0.219164
0.185918
0.150027
0.147975
0.160878
0.197652
0.213027
0.247290
0.245588
0.249396
0.231285
0.191015
0.149583
0.076530
0.036334
-0.038878
-0.101273
-0.152553
-0.180751
-0.188855
-0.182560
-0.178400
-0.141656
-0.089489
-0.039411
-0.009652
0.019895
0.077723
0.089249
0.094244
0.079142
0.039011
0.016244
-0.005615
-0.044172
-0.094130
-0.150368
-0.196484
-0.221138
-0.227099
-0.234199
-0.220991
-0.181950
-0.134869
-0.094093
-0.048551
0.001745
0.031977
0.060796
0.052138
0.039014
0.036128
0.006563
-0.037353
-0.094520
-0.134264
-0.184742
-0.207907
-0.221889
-0.238604
-0.229637
-0.219201
-0.183519
-0.130851
-0.107723
-0.061713
-0.024140
0.024453
0.050795
0.051095
0.041100
0.022360
-0.005053
-0.047130
-0.088169
-0.129811
-0.177330
-0.214209
-0.239226
-0.266865
-0.242451
-0.198623
-0.166247
-0.123855
-0.068575
-0.038920
-0.001245
0.050424
0.057539
0.056937
0.061978
0.030145
0.008284
-0.039074
-0.082582
-0.129544
-0.177016
-0.209179
-0.225811
-0.216166
-0.203382
-0.192981
-0.157605
-0.120822
-0.080079
-0.019157
0.026441
0.055321
0.078557
0.093121
0.069956
0.060848
0.031070
-0.014202
-0.065712
-0.120934
-0.153872
-0.195105
-0.209351
-0.201540
-0.191336
-0.163242
-0.124841
-0.088715
-0.039321
0.028744
0.070526
0.122202
0.137415
0.117687
0.099364
0.064349
0.049635
0.013500
-0.039435
-0.082067
-0.134741
-0.165366
-0.180552
-0.182148
-0.171133
-0.148720
-0.112003
-0.073223
-0.020233
0.040126
0.093249
0.125506
0.144325
0.156724
0.152533
0.115732
0.079248
0.029073
-0.024101
-0.051055
-0.087943
-0.140487
-0.162763
-0.169072
-0.160560
-0.134029
-0.090325
-0.054448
-0.003103
0.051407
0.095123
0.131151
0.156474
0.149555
0.140984
0.119759
0.073234
0.024790
-0.029673
-0.082422
-0.132735
-0.151273
-0.173820
-0.170633
-0.149262
-0.140052
-0.116435
-0.070681
-0.017796
0.010497
0.060594
0.107930
0.120890
0.095853
0.119613
0.106198
0.061752
0.030435
-0.016655
-0.072121
-0.123684
-0.153846
-0.172982
-0.208253
-0.208009
-0.209676
-0.181173
-0.117762
-0.081400
-0.025532
0.027841
0.049987
0.078294
0.082968
0.073509
0.056247
0.015671
-0.017968
-0.067797
-0.113891
-0.174109
-0.228226
-0.254881
-0.249496
-0.236908
-0.211299
-0.178267
-0.140454
-0.097127
-0.056888
-0.006776
0.021295
0.014620
0.008914
0.023790
0.027753
-0.003699
-0.066103
-0.096789
-0.148876
-0.187947
-0.227634
-0.254764
-0.267439
-0.256760
-0.248179
-0.236565
-0.196706
-0.156667
-0.115547
-0.062055
-0.025938
0.004821
0.025619
0.018894
-0.006714
-0.037213
-0.060111
-0.115432
-0.156732
-0.200853
-0.231129
-0.273442
-0.286783
-0.290311
-0.272322
-0.235584
-0.201668
-0.168377
-0.114125
-0.057078
-0.037485
-0.009697
0.007772
-0.002505
-0.018807
-0.039393
-0.075528
-0.130207
-0.175599
-0.193642
-0.233687
-0.276088
-0.280895
-0.267120
-0.251467
-0.228352
-0.185264
-0.143643
-0.091315
-0.047553
-0.028839
0.010784
0.002029
-0.029329
-0.036454
-0.058054
-0.089171
-0.118110
-0.184013
-0.234476
-0.233548
-0.260670
-0.283400
-0.292058
-0.236841
-0.220164
-0.183124
-0.137456
-0.092584
-0.053729
-0.015814
0.007293
0.001918
-0.006376
-0.015795
-0.047718
-0.092927
-0.127151
-0.170860
-0.220742
-0.274156
-0.304964
-0.304883
-0.275399
-0.224930
-0.205100
-0.186379
-0.137570
-0.073407
-0.046137
-0.025016
-0.009057
0.006196
0.007214
-0.024476
-0.048751
-0.083096
-0.133509
-0.175757
-0.212661
-0.255597
-0.273512
-0.277717
-0.277079
-0.260068
-0.225670
-0.184103
-0.132592
-0.094616
-0.059265
-0.016044
0.007703
0.008232
0.008133
-0.014593
-0.059481
-0.123752
-0.159255
-0.191669
-0.240045
-0.271376
-0.303159
-0.324241
-0.306507
-0.281860
-0.236542
-0.196182
-0.165061
-0.120904
-0.056547
-0.013819
0.010405
0.019853
0.010503
-0.037879
-0.078362
-0.113119
-0.142591
-0.193726
-0.237101
-0.269570
-0.296509
-0.313464
-0.313712
-0.288768
-0.262335
-0.214453
-0.169409
-0.120483
-0.063624
-0.030089
-0.018063
-0.018828
-0.007119
-0.042901
-0.065753
-0.095351
-0.137704
-0.196752
-0.252981
-0.288240
-0.301590
-0.331452
-0.329836
-0.294834
-0.258861
-0.211707
-0.164007
-0.106540
-0.060409
-0.046603
-0.025771
-0.021406
-0.008634
-0.061405
-0.086267
-0.101084
-0.141354
-0.192483
-0.233844
-0.270322
-0.312283
-0.325353
-0.322501
-0.320102
-0.276600
-0.234450
-0.184035
-0.130944
-0.090726
-0.061371
-0.032958
-0.023984
-0.029466
-0.031417
-0.061745
-0.094871
-0.132095
-0.171925
-0.232624
-0.273374
-0.299519
-0.316023
-0.313376
-0.312739
-0.268538
-0.228410
-0.181377
-0.145315
-0.109011
-0.068043
-0.050410
-0.036907
-0.028103
-0.032791
-0.074597
-0.118015
-0.160395
-0.201547
-0.247841
-0.276513
-0.293064
-0.303168
-0.302565
-0.295199
-0.245339
-0.192312
-0.168420
-0.148849
-0.075122
-0.044454
-0.019021
-0.003226
-0.029594
-0.050613
-0.077442
-0.106950
-0.140151
-0.170933
-0.230970
-0.249504
-0.268625
-0.281386
-0.268187
-0.222302
-0.194252
-0.170695
-0.137795
-0.096564
-0.051263
-0.023020
-0.020861
-0.002065
-0.004082
-0.020452
-0.065379
-0.112441
-0.144814
-0.184972
-0.226021
-0.266788
-0.267524
-0.270823
-0.257254
-0.228599
-0.180186
-0.129585
-0.099037
-0.045929
-0.005601
0.019035
0.036142
0.037982
-0.000651
-0.023393
-0.024879
-0.049550
-0.126188
-0.178937
-0.217328
-0.251968
-0.254084
-0.268279
-0.287704
-0.273818
-0.234467
-0.189566
-0.145339
-0.104673
-0.059129
-0.012201
0.003303
0.016209
-0.004255
-0.040909
-0.081897
-0.120040
-0.173647
-0.223600
-0.260215
-0.288883
-0.316641
-0.322187
-0.310169
-0.296082
-0.261496
-0.218687
-0.181137
-0.138055
-0.090829
-0.059351
-0.042550
-0.043428
-0.041740
-0.047010
-0.093212
-0.143861
-0.202259
-0.254612
-0.300644
-0.340090
-0.357216
-0.358239
-0.340974
-0.316177
-0.281434
-0.241327
-0.193652
-0.125671
-0.076354
-0.053716
-0.037701
-0.030164
-0.049053
-0.063229
-0.098453
-0.141044
-0.192476
-0.257693
-0.292260
-0.334188
-0.350283
-0.364080
-0.362409
-0.368358
-0.305356
-0.211805
-0.176219
-0.141937
-0.095333
-0.057924
-0.023636
-0.029403
-0.052613
-0.056148
-0.084874
-0.136064
-0.192311
-0.248423
-0.291379
-0.324361
-0.348016
-0.361751
-0.345157
-0.331631
-0.307694
-0.254251
-0.187577
-0.138112
-0.094452
-0.071424
-0.055864
-0.032999
-0.057359
-0.067501
-0.086764
-0.145200
-0.190872
-0.253208
-0.299916
-0.328882
-0.349634
-0.362914
-0.355631
-0.333142
-0.278708
-0.233649
-0.188221
-0.126248
-0.065549
-0.027813
0.012156
0.033491
0.033069
0.028688
0.021859
-0.018920
-0.047892
-0.094820
-0.115719
-0.131078
-0.128665
-0.109725
-0.078339
-0.034595
0.030277
0.117295
0.205691
0.287217
0.373829
0.447031
0.493039
0.544114
0.586324
0.624205
0.611449
0.606263
0.580578
0.560115
0.532793
0.503267
0.497116
0.477897
0.463351
0.444564
0.472993
0.478985
0.488786
0.494067
0.476218
0.437352
0.418062
0.383485
0.315808
0.252461
0.171540
0.106832
0.050277
0.008317
-0.060665
-0.097714
-0.138513
-0.148465
-0.146732
-0.162059
-0.157852
-0.138691
-0.098071
-0.018422
0.012616
0.027439
0.031992
0.037575
0.034265
0.011155
-0.042017
-0.070249
-0.103450
-0.150102
-0.183957
-0.229466
-0.256956
-0.260488
-0.264650
-0.252918
-0.217821
-0.173902
-0.152965
-0.116414
-0.071036
-0.031378
-0.019270
-0.010989
-0.022142
-0.030329
-0.063978
-0.105395
-0.136779
-0.178303
-0.215032
-0.244349
-0.270963
-0.272581
-0.281030
-0.272801
-0.215023
-0.167840
-0.115384
-0.081660
-0.055710
-0.020547
0.011142
0.011460
-0.010229
-0.020969
-0.044666
-0.078101
-0.123845
-0.184810
-0.222982
-0.272506
-0.284040
-0.275180
-0.265893
-0.256614
-0.217006
-0.177256
-0.132426
-0.088055
-0.039445
-0.018645
0.010723
0.024845
0.024279
0.017328
-0.033388
-0.080245
-0.125678
-0.183366
-0.213324
-0.208790
-0.259885
-0.270575
-0.251669
-0.233507
-0.184086
-0.152958
-0.101181
-0.051423
-0.014357
0.033191
0.033133
0.040588
0.054816
0.031701
-0.008676
-0.052338
-0.095206
-0.124768
-0.177792
-0.212645
-0.230540
-0.247576
-0.222451
-0.204122
-0.171419
-0.135866
-0.087802
-0.017478
0.042237
0.083330
0.092217
0.118378
0.121002
0.095721
0.046716
-0.017937
-0.061839
-0.105845
-0.140280
-0.172653
-0.181995
-0.201647
-0.192308
-0.175341
-0.144462
-0.094282
-0.045640
0.003684
0.054822
0.113677
0.135694
0.134880
0.138009
0.132833
0.085807
0.027152
-0.022138
-0.059676
-0.099098
-0.141997
-0.156813
-0.162069
-0.150762
-0.131719
-0.100895
-0.082079
-0.048836
0.022421
0.090178
0.126362
0.147277
0.143679
0.165741
0.142913
0.102268
0.053990
-0.018548
-0.067617
-0.095679
-0.113899
-0.137220
-0.152414
-0.163087
-0.136282
-0.099415
-0.046215
-0.003492
0.033848
0.061422
0.097883
0.143834
0.166785
0.156252
0.123717
0.105880
0.065802
0.015467
-0.044369
-0.092571
-0.129208
-0.175811
-0.170532
-0.157824
-0.156816
-0.121175
-0.078793
-0.043153
0.012338
0.062929
0.091163
0.107691
0.095736
0.096442
0.101853
0.069462
0.025400
-0.023583
-0.074252
-0.098864
-0.141334
-0.159201
-0.182659
-0.211680
-0.197107
-0.141967
-0.101475
-0.092662
-0.038047
0.024211
0.051937
0.075551
0.079541
0.058323
0.030989
0.011928
-0.038504
-0.070562
-0.116783
-0.145086
-0.168838
-0.220794
-0.217949
-0.212667
-0.209535
-0.156262
-0.112772
-0.089189
-0.060351
-0.024442
0.008460
0.051095
0.071398
0.053559
0.024403
0.003541
-0.040101
-0.074357
-0.116233
-0.166598
-0.197134
-0.206841
-0.227859
-0.230663
-0.214813
-0.165096
-0.109255
-0.089810
-0.042072
-0.005783
0.019309
0.049819
0.061619
0.045424
0.030209
0.003939
-0.044191
-0.077038
-0.125074
-0.179134
-0.205499
-0.208999
-0.227601
-0.216857
-0.201783
-0.161126
-0.114187
-0.074681
-0.027037
-0.011495
0.032814
0.068871
0.059438
0.056470
0.048127
0.002964
-0.049939
-0.086378
-0.115760
-0.152349
-0.186456
-0.212096
-0.228415
-0.207396
-0.172398
-0.123750
-0.084333
-0.060355
-0.020537
0.015901
0.052594
0.082167
0.089771
0.085635
0.070661
0.021299
-0.042154
-0.072984
-0.108505
-0.163132
-0.199397
-0.207910
-0.214200
-0.210895
-0.175627
-0.119899
-0.096585
-0.050656
-0.007968
0.041986
0.073292
0.106912
0.108026
0.091986
0.083807
0.033749
-0.016303
-0.059159
-0.111541
-0.158772
-0.172681
-0.174625
-0.184309
-0.200113
-0.172026
-0.142848
-0.091530
-0.032707
0.015857
0.052429
0.085433
0.111158
0.105577
0.093810
0.081956
0.052036
0.012550
-0.057601
-0.094030
-0.128659
-0.162570
-0.187026
-0.179614
-0.188369
-0.182885
-0.161244
-0.108606
-0.042574
-0.001059
0.037935
0.084885
0.125927
0.126615
0.119863
0.105289
0.078445
0.026446
-0.016403
-0.068218
-0.149215
-0.186409
-0.203113
-0.207392
-0.200357
-0.162119
-0.151674
-0.102029
-0.070204
-0.017563
0.038733
0.083533
0.095402
0.105415
0.082452
0.046654
0.060057
0.038955
-0.000996
-0.062032
-0.099451
-0.139389
-0.168360
-0.193850
-0.186154
-0.161391
-0.133919
-0.102961
-0.055937
-0.001560
0.028097
0.069493
0.091320
0.116711
0.102243
0.081246
0.049824
0.014957
-0.032963
-0.064335
-0.100379
-0.147615
-0.171658
-0.162593
-0.154399
-0.153158
-0.120467
-0.075200
-0.042258
-0.005433
0.050900
0.068574
0.102676
0.122004
0.116665
0.105552
0.061281
0.020027
-0.016630
-0.068478
-0.109506
-0.153460
-0.167637
-0.183611
-0.165811
-0.126712
-0.085621
-0.061593
-0.032066
0.010037
0.038912
0.075140
0.099927
0.106585
0.122481
0.108197
0.066885
0.035461
-0.007450
-0.058672
-0.105131
-0.133433
-0.150558
-0.163538
-0.163830
-0.133727
-0.108004
-0.073991
-0.018640
0.043086
0.073314
0.108156
0.137498
0.136747
0.132770
0.125953
0.107269
0.071885
0.011436
-0.025031
-0.069806
-0.098863
-0.113055
-0.118470
-0.120309
-0.090030
-0.048698
-0.003729
0.009800
0.076642
0.109476
0.146849
0.170523
0.192018
0.167196
0.143658
0.114387
0.061405
0.006374
-0.042034
-0.064188
-0.100731
-0.124742
-0.135582
-0.103344
-0.056549
-0.010441
0.019103
0.063142
0.135940
0.190638
0.212048
0.217160
0.195615
0.210374
0.192802
0.167163
0.123169
0.057087
0.001016
-0.048270
-0.090369
-0.101818
-0.111894
-0.103377
-0.100567
-0.049795
-0.011352
0.032224
0.080867
0.128241
0.158021
0.174462
0.186030
0.178859
0.159107
0.110787
0.066412
0.022330
-0.038594
-0.071344
-0.104489
-0.139496
-0.127538
-0.157736
-0.142292
-0.089448
-0.025898
0.025570
0.060970
0.123942
0.156920
0.172234
0.178198
0.165902
0.153675
0.113013
0.071487
0.028092
-0.037785
-0.079984
-0.117754
-0.141953
-0.159021
-0.148828
-0.131567
-0.092684
-0.048860
-0.013532
0.036092
0.090273
0.122986
0.172176
0.178797
0.138812
0.152946
0.123868
0.079513
0.020002
-0.044982
-0.080414
-0.103976
-0.123890
-0.125940
-0.125646
-0.111754
-0.080096
-0.048522
-0.026002
0.037589
0.095422
0.149024
0.159865
0.169785
0.149715
0.138797
0.116275
0.070621
0.032513
-0.006229
-0.061449
-0.081354
-0.105000
-0.111516
-0.107632
-0.094459
-0.088610
-0.058964
0.001173
0.063060
0.118566
0.143826
0.147335
0.164206
0.178567
0.154312
0.116578
0.078073
0.033325
-0.003505
-0.031612
-0.071231
-0.125571
-0.141382
-0.119153
-0.084374
-0.055263
-0.000688
0.044003
0.105798
0.149499
0.177281
0.195313
0.225451
0.243772
0.229715
0.214577
0.197257
0.158110
0.121114
0.107066
0.103162
0.097351
0.109660
0.137964
0.189329
0.246128
0.318619
0.413603
0.489785
0.554566
0.625017
0.696890
0.728556
0.740324
0.763419
0.788708
0.792938
0.778028
0.756751
0.732914
0.698986
0.676901
0.664304
0.663687
0.681100
0.711083
0.741147
0.760155
0.759242
0.720413
0.690578
0.675320
0.634953
0.587604
0.515589
0.435033
0.358272
0.295958
0.237050
0.164977
0.108573
0.081979
0.074375
0.081883
0.083017
0.105737
0.158720
0.177992
0.205230
0.263784
0.286747
0.315433
0.311663
0.299044
0.289680
0.241214
0.190087
0.141690
0.082261
0.042226
-0.001920
-0.036621
-0.053307
-0.024884
-0.011464
0.025556
0.063711
0.115798
0.158118
0.219875
0.267084
0.271674
0.276530
0.274219
0.255381
0.220164
0.174092
0.128592
0.080280
0.032049
0.000894
-0.052031
-0.074059
-0.056677
-0.031232
0.007910
0.060794
0.104944
0.144114
0.198138
0.241402
0.277075
0.273484
0.274668
0.254096
0.225497
0.196436
0.138947
0.071611
0.044016
0.010272
-0.015029
-0.035679
-0.020751
0.002059
0.037318
0.077558
0.117154
0.176991
0.220807
0.264440
0.276498
0.293054
0.291789
0.278528
0.247966
0.198557
0.166198
0.120683
0.075817
0.050869
0.021641
-0.010972
-0.003254
0.032199
0.044006
0.090119
0.141588
0.200880
0.248573
0.293700
0.310248
0.301773
0.297872
0.301431
0.285717
0.249946
0.204920
0.144236
0.093140
0.084343
0.050144
0.042372
0.069317
0.075144
0.080803
0.134022
0.206234
0.249578
0.296890
0.330345
0.333642
0.336468
0.339789
0.329129
0.303413
0.254781
0.215225
0.195365
0.151638
0.110760
0.099441
0.083501
0.085111
0.114040
0.148529
0.192731
0.248984
0.277094
0.315877
0.374831
0.393851
0.391671
0.379786
0.370867
0.341170
0.299853
0.227237
0.202692
0.175455
0.150251
0.127630
0.127587
0.131850
0.146605
0.183973
0.216451
0.272661
0.307043
0.361762
0.397848
0.408654
0.418649
0.410412
0.392249
0.367185
0.325286
0.263063
0.227324
0.192033
0.160289
0.130193
0.128735
0.129874
0.148909
0.169862
0.223219
0.284195
0.328376
0.359464
0.402434
0.428376
0.420677
0.412359
0.392865
0.355022
0.298735
0.252896
0.199333
0.154645
0.125577
0.098074
0.109792
0.114746
0.114323
0.142579
0.209643
0.274170
0.306954
0.337692
0.362560
0.392436
0.397583
0.401676
0.373187
0.341346
0.302538
0.284086
0.200909
0.134657
0.116851
0.104345
0.085883
0.070193
0.080815
0.119099
0.182088
0.230302
0.277443
0.316883
0.346921
0.358581
0.370650
0.365405
0.355929
0.331008
0.288538
0.203262
0.162526
0.116074
0.067087
0.054313
0.048501
0.044366
0.059077
0.096818
0.137384
0.188828
0.233944
0.279949
0.319463
0.346002
0.340593
0.355300
0.336244
0.277981
0.260248
0.221631
0.156067
0.102808
0.064661
0.040113
-0.000705
0.012202
0.056293
0.098982
0.119278
0.175624
0.208897
0.261633
0.297078
0.324254
0.345509
0.338289
0.318359
0.290023
0.249097
0.210740
0.165323
0.117428
0.082107
0.039502
0.039007
0.050182
0.072542
0.078160
0.122256
0.165141
0.222934
0.282211
0.328142
0.344757
0.337127
0.348570
0.320643
0.290886
0.274716
0.213590
0.156034
0.117188
0.091252
0.068505
0.066290
0.063171
0.073650
0.090675
0.140384
0.191354
0.236463
0.281565
0.313839
0.334020
0.343468
0.342269
0.333303
0.297560
0.261862
0.216143
0.162506
0.125304
0.092678
0.073078
0.057689
0.068651
0.089581
0.118683
0.137775
0.196583
0.243127
0.288280
0.334647
0.342200
0.354628
0.326241
0.316031
0.296728
0.257621
0.205698
0.164671
0.129939
0.083527
0.066035
0.062082
0.063163
0.097422
0.123412
0.166630
0.213540
0.261435
0.317059
0.338755
0.337634
0.351471
0.352266
0.299394
0.279567
0.253830
0.202649
0.151541
0.104979
0.094023
0.071331
0.065537
0.057096
0.086315
0.122574
0.161511
0.215088
0.268862
0.311681
0.339741
0.364335
0.369606
0.333878
0.323302
0.297835
0.257222
0.199667
0.154806
0.098345
0.066574
0.053055
0.057294
0.069334
0.072042
0.101109
0.159822
0.215195
0.252692
0.291040
0.317404
0.336063
0.356433
0.364995
0.333726
0.293941
0.254750
0.194148
0.146855
0.106243
0.065808
0.042648
0.043417
0.048422
0.068625
0.091976
0.121812
0.194229
0.245498
0.298490
0.317913
0.352546
0.373154
0.359225
0.338692
0.324199
0.267694
0.202930
0.139746
0.113949
0.085945
0.070710
0.038110
0.007879
0.048514
0.086542
0.123102
0.185585
0.236984
0.296181
0.314475
0.334411
0.345144
0.345199
0.325452
0.295140
0.256493
0.202881
0.168452
0.129651
0.084704
0.057575
0.041693
0.039055
0.043429
0.068963
0.128265
0.192257
0.238802
0.279281
0.315327
0.349614
0.360282
0.346817
0.323939
0.299372
0.270694
0.220199
0.165454
0.128689
0.074123
0.039090
0.026611
0.048559
0.073672
0.105495
0.143676
0.191717
0.245502
0.295250
0.310450
0.339638
0.346189
0.348687
0.341291
0.306692
0.275856
0.224629
0.182098
0.145137
0.109179
0.093787
0.090559
0.090884
0.116883
0.147418
0.167744
0.226786
0.284188
0.321477
0.348936
0.360106
0.371923
0.370423
0.345742
0.309739
0.272405
0.223884
0.201306
0.148843
0.085556
0.074306
0.073781
0.081359
0.108485
0.154830
0.204219
0.239129
0.288177
0.348496
0.379147
0.385468
0.402835
0.394355
0.366814
0.325361
0.311471
0.265487
0.221978
0.163670
0.133066
0.108312
0.090667
0.095399
0.100982
0.138220
0.191917
0.247017
0.282849
0.309439
0.340340
0.360625
0.364552
0.371572
0.347043
0.313882
0.283132
0.203070
0.158311
0.112779
0.073246
0.061166
0.059543
0.053536
0.062198
0.103233
0.143433
0.203697
0.252237
0.300018
0.320132
0.338453
0.349951
0.343111
0.319668
0.277820
0.246714
0.177629
0.120138
0.098324
0.052624
0.022113
0.017274
0.009318
0.032650
0.078109
0.124964
0.170894
0.210934
0.265379
0.295008
0.323526
0.340757
0.337280
0.300869
0.277074
0.232185
0.192882
0.160029
0.087149
0.025560
0.000570
0.005750
0.012561
0.033285
0.064723
0.106151
0.145924
0.189948
0.238891
0.309587
0.325275
0.337010
0.338051
0.313592
0.286821
0.232488
0.181223
0.143526
0.085763
0.055820
0.037942
0.023855
0.025430
0.036291
0.065281
0.095040
0.150937
0.209597
0.235882
0.272205
0.311278
0.322413
0.311803
0.295847
0.281491
0.237807
0.184263
0.135850
0.094030
0.063419
0.038148
0.034410
0.028629
0.043422
0.081936
0.108414
0.166528
0.194008
0.226567
0.265097
0.314943
0.339512
0.355220
0.321883
0.297131
0.269923
0.239935
0.223591
0.198867
0.172981
0.160658
0.163212
0.179302
0.219779
0.269657
0.330809
0.420206
0.507132
0.575042
0.615433
0.672590
0.701149
0.729328
0.768935
0.756161
0.740221
0.727802
0.725483
0.717482
0.724263
0.732100
0.756600
0.775775
0.804094
0.836481
0.879160
0.913958
0.962167
0.968366
0.986668
0.974992
0.915936
0.845146
0.766027
0.688225
0.600391
0.495659
0.408206
0.316414
0.257836
0.208079
0.195315
0.210681
0.227455
0.260620
0.297354
0.322727
0.334296
0.367544
0.402315
0.396930
0.417392
0.401254
0.380751
0.358037
0.308578
0.230710
0.171818
0.133515
0.097679
0.089489
0.093269
0.070191
0.086140
0.121951
0.162518
0.203821
0.261865
0.298624
0.347165
0.355356
0.364788
0.383114
0.364242
0.312449
0.268298
0.193570
0.137068
0.111373
0.059154
0.038366
0.017753
0.018388
0.049315
0.085685
0.115938
0.168424
0.220616
0.288572
0.327576
0.345472
0.341797
0.350618
0.350471
0.307577
0.254534
0.195739
0.162003
0.122837
0.076414
0.048208
0.038168
0.034003
0.064551
0.085863
0.130171
0.179279
0.225580
0.289961
0.324662
0.335958
0.360170
0.358090
0.334257
0.293511
0.246907
0.193651
0.155527
0.124112
0.085568
0.056418
0.050095
0.042136
0.068150
0.099457
0.145714
0.178866
0.240674
0.287668
0.332050
0.351605
0.365801
0.373717
0.365138
0.313342
0.282738
0.264579
0.204804
0.169024
0.126177
0.054521
0.051445
0.074623
0.097070
0.150897
0.185008
0.224528
0.274133
0.319058
0.349884
0.355014
0.367157
0.374853
0.338720
0.333457
0.294531
0.245010
0.213358
0.177519
0.135792
0.111646
0.102602
0.115589
0.132016
0.171522
0.213063
0.259894
0.310812
0.363311
0.388610
0.402459
0.403276
0.403602
0.394769
0.361716
0.315091
0.273036
0.230645
0.192885
0.159900
0.148294
0.116421
0.116537
0.150794
0.180540
0.222744
0.271767
0.329011
0.376948
0.418372
0.437387
0.440026
0.418617
0.391602
0.384563
0.341164
0.271853
0.209214
0.176687
0.156499
0.126867
0.108030
0.123367
0.156543
0.192001
0.230499
0.277905
0.325187
0.366291
0.403473
0.419607
0.418885
0.414246
0.393246
0.365817
0.301137
0.227028
0.212482
0.147075
0.111297
0.100330
0.105286
0.098802
0.127038
0.147149
0.213337
0.249292
0.283544
0.323971
0.378981
0.401716
0.417127
0.406243
0.380038
0.337968
0.294346
0.248728
0.180020
0.127885
0.090863
0.075049
0.052996
0.055695
0.066746
0.106561
0.166098
0.216865
0.247946
0.293865
0.335499
0.357594
0.362627
0.358366
0.343612
0.308290
0.254124
0.201694
0.152515
0.107603
0.076227
0.046648
0.039274
0.020583
0.028298
0.038464
0.085045
0.140577
0.186832
0.244616
0.305483
0.330882
0.323300
0.327423
0.311359
0.269516
0.236277
0.167428
0.114543
0.085104
0.044692
0.021638
0.043034
0.013135
-0.001869
0.036317
0.087418
0.141248
0.192761
0.230726
0.266715
0.278567
0.284228
0.299021
0.279935
0.240224
0.208931
0.156751
0.116017
0.078741
0.048400
0.014510
-0.015833
-0.006880
0.014974
0.065225
0.123891
0.140325
0.192775
0.230366
0.263063
0.267106
0.254350
0.273155
0.274168
0.232752
0.192208
0.157902
0.093617
0.080317
0.052954
0.009411
-0.005702
0.005269
0.032608
0.060916
0.099077
0.154821
0.192172
0.221241
0.255983
0.287262
0.284415
0.271614
0.265201
0.240322
0.187182
0.144009
0.115171
0.071275
0.036053
0.002226
0.000464
0.012036
0.035874
0.050153
0.093192
0.144111
0.201313
0.231746
0.257374
0.281324
0.280865
0.251310
0.265281
0.217539
0.169008
0.113143
0.065579
0.040330
0.016007
-0.011307
-0.001811
0.023465
0.040652
0.055053
0.071568
0.106351
0.188135
0.240916
0.264907
0.281080
0.296286
0.308783
0.262251
0.236434
0.184884
0.142839
0.084527
0.057573
0.021937
-0.003882
-0.018778
-0.026871
-0.002156
0.043601
0.094350
0.157688
0.176546
0.199466
0.249844
0.271859
0.280296
0.275471
0.246303
0.217386
0.170113
0.116475
0.051855
0.023457
-0.006446
-0.035283
-0.041485
-0.036709
-0.005731
0.026560
0.089827
0.121392
0.159051
0.196032
0.243779
0.253886
0.281761
0.265793
0.240935
0.203096
0.151584
0.107311
0.068295
0.027596
-0.009682
-0.041443
-0.057347
-0.057639
-0.034104
0.014179
0.061156
0.102794
0.146206
0.190606
0.228905
0.252377
0.278681
0.276641
0.258272
0.213591
0.154733
0.106773
0.060961
-0.001900
-0.047753
-0.055901
-0.067774
-0.059523
-0.032421
-0.007600
0.038039
0.101604
0.164184
0.186615
0.205016
0.236491
0.263078
0.249181
0.241975
0.193874
0.131137
0.089539
0.054938
0.005836
-0.045311
-0.055360
-0.092673
-0.091031
-0.047384
-0.025871
-0.000702
0.058459
0.114574
0.163197
0.204220
0.235530
0.246986
0.226227
0.201491
0.186086
0.139244
0.108450
0.046747
-0.002981
-0.028623
-0.041542
-0.061864
-0.056997
-0.058384
-0.028926
0.018853
0.077967
0.122348
0.159635
0.204353
0.224878
0.225945
0.200867
0.192064
0.163051
0.116095
0.085475
0.046460
0.007913
-0.025370
-0.056755
-0.072537
-0.063478
-0.038070
-0.024876
0.019488
0.077419
0.110638
0.174367
0.211681
0.240957
0.255245
0.240241
0.230819
0.200480
0.157218
0.107818
0.040763
-0.010387
-0.036632
-0.022309
-0.023264
-0.038768
-0.012976
0.014295
0.061897
0.097654
0.144275
0.162977
0.202946
0.222908
0.235823
0.224597
0.205878
0.182951
0.153074
0.107658
0.079113
0.039588
0.003502
-0.010708
-0.004601
-0.010571
0.017083
0.021152
0.088284
0.125138
0.144782
0.178634
0.221452
0.256457
0.267060
0.252500
0.208596
0.153633
0.105723
0.073675
0.034214
0.012932
-0.048758
-0.069907
-0.084286
-0.078984
-0.053166
-0.016480
0.013148
0.075185
0.127857
0.151075
0.173245
0.209139
0.213869
0.207588
0.187835
0.142637
0.076167
0.044499
-0.001767
-0.031140
-0.068235
-0.099808
-0.121331
-0.110155
-0.073732
-0.039365
0.012776
0.055947
0.103277
0.119739
0.137410
0.173178
0.192817
0.169174
0.135757
0.109642
0.058538
0.024040
-0.015462
-0.071755
-0.106907
-0.130912
-0.160644
-0.148693
-0.110858
-0.075354
-0.025209
0.007118
0.044843
0.097801
0.128688
0.145000
0.156504
0.148915
0.118113
0.095416
0.060243
0.016539
-0.040104
-0.101248
-0.126116
-0.158425
-0.158808
-0.159016
-0.142275
-0.103368
-0.056345
-0.007765
0.041033
0.080169
0.125405
0.158608
0.182302
0.168541
0.154175
0.114862
0.074272
0.014896
-0.052108
-0.114274
-0.125825
-0.152413
-0.132329
-0.134823
-0.110546
-0.081040
-0.051370
-0.010312
0.031311
0.072553
0.094448
0.146337
0.164683
0.155461
0.123752
0.090947
0.044976
0.013327
-0.036214
-0.092603
-0.133365
-0.150841
-0.157754
-0.123325
-0.093775
-0.069625
-0.023767
0.037888
0.100309
0.157130
0.218674
0.269258
0.295013
0.291502
0.295130
0.292972
0.271256
0.234320
0.228288
0.221503
0.206429
0.206064
0.233313
0.262853
0.316769
0.371784
0.453044
0.531118
0.610420
0.690272
0.779704
0.829981
0.874425
0.884253
0.849470
0.804604
0.767409
0.690876
0.629843
0.565570
0.502006
0.472569
0.414721
0.355052
0.339690
0.313434
0.300273
0.309307
0.303578
0.298949
0.314759
0.325671
0.321929
0.300968
0.274986
0.241155
0.171805
0.134959
0.062310
0.033975
-0.008805
-0.051478
-0.068606
-0.060843
-0.053579
-0.006814
0.038486
0.063550
0.098960
0.151852
0.167676
0.166341
0.183836
0.165632
0.134643
0.109428
0.052396
0.029946
-0.032915
-0.085537
-0.095802
-0.103358
-0.123433
-0.111785
-0.086100
-0.067007
-0.026390
0.013774
0.060339
0.094957
0.128632
0.165638
0.174004
0.159855
0.136720
0.093896
0.054787
0.019344
-0.051431
-0.101504
-0.128197
-0.152857
-0.143394
-0.143010
-0.113304
-0.077614
-0.034751
-0.012612
0.040859
0.065055
0.108019
0.138854
0.197135
0.189408
0.158171
0.112684
0.063909
-0.004948
-0.071049
-0.083447
-0.115469
-0.180900
-0.175851
-0.137946
-0.122377
-0.086859
-0.020493
0.020898
0.058226
0.126633
0.166223
0.176849
0.176163
0.179455
0.173832
0.129271
0.089225
0.014498
-0.036861
-0.104212
-0.135672
-0.135126
-0.131183
-0.129144
-0.089017
-0.058700
-0.009841
0.025489
0.060329
0.124976
0.184799
0.197787
0.206671
0.181022
0.172149
0.150498
0.102915
0.053301
0.003475
-0.038572
-0.068418
-0.080805
-0.139885
-0.118646
-0.101116
-0.075461
-0.015187
0.021440
0.069100
0.128832
0.163867
0.193882
0.216864
0.228318
0.225209
0.185251
0.110757
0.067872
0.039929
-0.003722
-0.037659
-0.067593
-0.076430
-0.071500
-0.045208
0.010078
0.036185
0.053252
0.117975
0.161749
0.195074
0.232480
0.249097
0.242700
0.227060
0.197624
0.142166
0.090554
0.050941
0.022135
-0.017959
-0.037796
-0.074009
-0.046521
-0.027257
-0.000861
0.025606
0.081273
0.138581
0.186945
0.200987
0.213817
0.242273
0.250929
0.232784
0.206005
0.155225
0.115303
0.058295
0.057665
-0.017530
-0.090990
-0.082946
-0.043655
-0.020178
-0.011935
0.035138
0.060098
0.053547
0.104801
0.184468
0.198839
0.187786
0.209346
0.175823
0.131391
0.084578
0.051774
0.014868
-0.019460
-0.046632
-0.059692
-0.100063
-0.082646
-0.044447
-0.027112
-0.002860
0.050385
0.071704
0.106706
0.147719
0.170240
0.165521
0.172993
0.148648
0.113415
0.052151
0.010497
-0.035245
-0.067865
-0.102354
-0.139285
-0.147076
-0.125200
-0.097338
-0.082011
-0.032447
0.003589
0.040926
0.097010
0.148011
0.140853
0.146447
0.157091
0.119977
0.086982
0.029965
-0.035125
-0.076587
-0.106128
-0.113061
-0.136912
-0.178845
-0.170622
-0.164264
-0.131888
-0.079449
-0.036629
0.015988
0.045058
0.089444
0.097242
0.107284
0.121318
0.107269
0.065042
0.010981
-0.039514
-0.091548
-0.130238
-0.163666
-0.208989
-0.205263
-0.199423
-0.177387
-0.140436
-0.084196
-0.026679
0.008937
0.043448
0.074550
0.077112
0.080287
0.083113
0.114651
0.068606
0.040044
-0.031087
-0.078266
-0.131259
-0.165573
-0.197435
-0.203905
-0.192125
-0.174315
-0.134470
-0.080362
-0.045046
-0.012323
0.057369
0.082340
0.081162
0.126894
0.120552
0.104892
0.054801
-0.011700
-0.047328
-0.084913
-0.123784
-0.163677
-0.178085
-0.217403
-0.233297
-0.206573
-0.151767
-0.096275
-0.062742
-0.018644
0.035272
0.076436
0.088875
0.115185
0.116621
0.100539
0.071966
0.024463
-0.016813
-0.073805
-0.114920
-0.165400
-0.168491
-0.193552
-0.190575
-0.179412
-0.162922
-0.103208
-0.057540
-0.007311
0.042085
0.076755
0.108473
0.131056
0.116175
0.094230
0.061966
0.021052
-0.037483
-0.077852
-0.127204
-0.172752
-0.178809
-0.189553
-0.183791
-0.158563
-0.163731
-0.123355
-0.053056
-0.002938
0.020560
0.032162
0.070458
0.094280
0.092659
0.091958
0.061877
0.010272
-0.076286
-0.105889
-0.133266
-0.157483
-0.194336
-0.234393
-0.183166
-0.171383
-0.172007
-0.137709
-0.085367
-0.032275
0.019560
0.056940
0.073927
0.114578
0.107219
0.048865
0.012879
-0.026875
-0.048716
-0.100726
-0.144842
-0.196028
-0.214045
-0.225769
-0.204907
-0.175632
-0.130704
-0.095976
-0.041936
-0.000140
0.036797
0.050009
0.050653
0.079958
0.070828
0.055371
0.001240
-0.033548
-0.065830
-0.117420
-0.148166
-0.190708
-0.207703
-0.208036
-0.220766
-0.187554
-0.131105
-0.090327
-0.043783
-0.018678
-0.013477
0.001190
0.036023
0.067981
0.076375
0.072337
0.017734
-0.026820
-0.079228
-0.129632
-0.166050
-0.220390
-0.239621
-0.245759
-0.225959
-0.225047
-0.161865
-0.115872
-0.093900
-0.039107
-0.000973
0.063061
0.072901
0.071900
0.037166
0.027885
0.014365
-0.010635
-0.074139
-0.117506
-0.155555
-0.177051
-0.197546
-0.213719
-0.194889
-0.155718
-0.136707
-0.142253
-0.075090
0.013755
0.058965
0.042552
0.063152
0.092524
0.081933
0.073074
0.041316
-0.005940
-0.064318
-0.117603
-0.140446
-0.177604
-0.202636
-0.208943
-0.205465
-0.176348
-0.178240
-0.133137
-0.067137
-0.001579
0.077747
0.105025
0.106277
0.133598
0.103590
0.092836
0.058963
0.002362
-0.027713
-0.097565
-0.149822
-0.181464
-0.205197
-0.211910
-0.178392
-0.226344
-0.152091
-0.102503
-0.059464
-0.074482
0.013355
0.095811
0.133683
0.171347
0.145027
0.116936
0.098576
0.064683
0.001617
-0.023929
-0.094815
-0.160381
-0.196874
-0.201403
-0.197924
-0.180731
-0.179786
-0.146847
-0.085693
-0.052394
-0.004171
0.070019
0.097268
0.065092
0.050582
0.092131
0.050739
-0.014753
-0.076666
-0.112001
-0.153124
-0.199418
-0.200070
-0.210663
-0.191991
-0.170106
-0.125978
-0.097528
-0.089816
-0.022604
0.040135
0.053277
0.067222
0.087725
0.070413
0.043913
0.015267
-0.058589
-0.139356
-0.169596
-0.212476
-0.266608
-0.297355
-0.280226
-0.258918
-0.267660
-0.238309
-0.172802
-0.128180
-0.084945
-0.044847
-0.029100
-0.012553
0.031856
0.041355
0.035570
0.006881
-0.072890
-0.120759
-0.148602
-0.171890
-0.220161
-0.256222
-0.275442
-0.251678
-0.245869
-0.202486
-0.158524
-0.093862
-0.020498
-0.000681
0.021881
0.049535
0.062561
0.066395
0.049508
-0.025919
-0.102937
-0.127731
-0.170155
-0.200446
-0.220832
-0.240659
-0.258526
-0.200499
-0.236685
-0.216176
-0.250664
-0.165219
-0.079184
-0.023531
0.018376
0.026864
0.029740
0.034159
0.016241
-0.027576
-0.083411
-0.132439
-0.166454
-0.249569
-0.275450
-0.281196
-0.286545
-0.284779
-0.266693
-0.246765
-0.185354
-0.129597
-0.074890
-0.030211
0.001799
0.052956
0.092814
0.080995
0.059792
0.037302
-0.027538
-0.057110
-0.062793
-0.118000
-0.140317
-0.101052
-0.104188
-0.127080
-0.084201
-0.019552
0.050721
0.109988
0.184313
0.225526
0.261338
0.336332
0.366018
0.380016
0.400994
0.417869
0.416176
0.425169
0.430952
0.430828
0.434670
0.451558
0.430790
0.460460
0.476797
0.528982
0.552591
0.616761
0.609331
0.621417
0.615101
0.586802
0.541105
0.537958
0.494849
0.381086
0.266704
0.151111
0.067173
-0.017334
-0.021647
-0.033410
-0.057050
-0.083207
-0.087120
-0.072100
-0.048674
-0.008351
0.050468
0.103328
0.094239
0.072785
0.107951
0.136999
0.130466
0.087920
0.014242
-0.052112
-0.113479
-0.126952
-0.149023
-0.204449
-0.218787
-0.216994
-0.218117
-0.189667
-0.133479
-0.087969
-0.046964
-0.016007
0.022444
0.038583
0.057377
0.042016
0.044562
0.038434
0.028049
-0.080752
-0.148428
-0.209486
-0.218108
-0.283743
-0.318842
-0.278800
-0.200436
-0.160791
-0.140023
-0.103397
-0.058765
-0.044704
0.014724
0.036011
0.043170
0.069786
0.062041
0.036312
-0.044817
-0.096437
-0.132479
-0.173575
-0.187232
-0.183902
-0.206995
-0.212648
-0.227881
-0.226470
-0.127097
-0.093423
-0.059795
-0.009984
0.016533
0.050753
0.054116
0.065339
0.044147
0.003689
-0.018570
-0.072761
-0.108779
-0.146602
-0.185334
-0.209532
-0.215343
-0.198766
-0.180326
-0.168614
-0.141547
-0.090622
-0.042468
0.025938
0.061934
0.092258
0.077737
0.061162
0.034484
0.007399
-0.023783
-0.072024
-0.125702
-0.151409
-0.172130
-0.193267
-0.206560
-0.187764
-0.164891
-0.148373
-0.099176
-0.073949
-0.028023
0.010240
0.067256
0.112966
0.100930
0.085828
0.055888
0.047890
-0.013260
-0.069332
-0.130851
-0.150500
-0.162747
-0.171150
-0.197330
-0.174057
-0.130881
-0.085575
-0.058954
-0.004325
0.071736
0.066296
0.079363
0.131389
0.138938
0.137653
0.106691
0.028758
-0.003813
-0.053060
-0.058755
-0.098793
-0.135209
-0.162103
-0.175083
-0.148252
-0.134113
-0.096393
-0.051895
0.015981
0.056327
0.103497
0.148258
0.169044
0.167076
0.160529
0.120995
0.095695
0.056196
0.009704
-0.048307
-0.071834
-0.111434
-0.162640
-0.165431
-0.162488
-0.145011
-0.103258
-0.064483
-0.017672
0.050017
0.115448
0.157925
0.163113
0.187665
0.165414
0.123620
0.090959
0.057828
-0.010004
-0.052200
-0.099402
-0.153230
-0.179770
-0.203834
-0.184858
-0.146488
-0.113153
-0.074998
-0.039504
0.015002
0.054209
0.093227
0.123732
0.115913
0.121086
0.086094
0.047360
0.019939
-0.013580
-0.077824
-0.100520
-0.151708
-0.202336
-0.228326
-0.255247
-0.206306
-0.162441
-0.120581
-0.101601
-0.035458
0.010453
0.050642
0.068954
0.109408
0.113674
0.054927
-0.032900
-0.039836
-0.100782
-0.116392
-0.152109
-0.203263
-0.247436
-0.253947
-0.256772
-0.229088
-0.206347
-0.182137
-0.125295
-0.072896
-0.027212
-0.005146
0.016738
0.030848
0.024629
0.006316
0.007203
-0.044238
-0.119021
-0.186984
-0.217500
-0.243084
-0.270344
-0.295495
-0.275569
-0.263738
-0.253039
-0.197461
-0.140774
-0.086355
-0.038529
-0.015579
0.007254
0.006103
-0.007777
-0.040033
-0.056615
-0.093477
-0.130525
-0.180641
-0.223278
-0.259379
-0.276555
-0.281243
-0.271146
-0.241849
-0.196308
-0.183528
-0.123310
-0.097427
-0.090687
-0.021857
-0.009249
-0.018092
-0.010947
-0.025579
-0.054613
-0.073276
-0.141757
-0.224823
-0.235982
-0.267496
-0.310784
-0.309997
-0.262500
-0.251827
-0.220317
-0.166938
-0.142430
-0.109651
-0.066703
-0.048915
-0.025650
0.000825
-0.004615
-0.033429
-0.068694
-0.110904
-0.141297
-0.178535
-0.233142
-0.258669
-0.271680
-0.248020
-0.266930
-0.268372
-0.219622
-0.180878
-0.147462
-0.114166
-0.074059
0.008148
0.021040
0.026932
-0.008795
-0.025175
-0.073391
-0.111711
-0.163518
-0.212857
-0.264407
-0.275240
-0.302450
-0.300969
-0.289349
-0.272626
-0.237464
-0.185754
-0.126394
-0.074786
-0.034860
-0.006871
0.014824
0.019553
-0.003847
-0.025807
-0.072695
-0.123627
-0.169134
-0.201433
-0.242849
-0.269907
-0.318608
-0.329450
-0.317051
-0.279392
-0.247871
-0.213435
-0.159237
-0.092122
-0.049517
-0.009092
0.010279
0.005503
0.015580
0.000170
-0.043915
-0.091664
-0.175657
-0.257952
-0.304378
-0.305467
-0.314271
-0.321443
-0.322194
-0.320494
-0.283595
-0.218009
-0.157717
-0.098450
-0.055066
-0.008009
0.010810
0.022487
0.028499
0.001603
-0.034972
-0.106094
-0.167412
-0.200628
-0.257701
-0.296660
-0.298081
-0.326900
-0.327098
-0.304580
-0.289377
-0.232517
-0.151941
-0.095449
-0.052249
-0.044988
-0.001156
0.010439
0.001952
-0.002087
-0.050142
-0.131048
-0.179986
-0.238152
-0.281164
-0.326588
-0.335282
-0.329265
-0.332292
-0.326711
-0.287166
-0.225650
-0.182511
-0.113112
-0.090101
-0.059812
-0.018225
-0.018661
-0.006953
-0.043048
-0.069932
-0.121512
-0.198285
-0.237821
-0.258416
-0.277349
-0.295430
-0.304689
-0.302475
-0.286707
-0.286464
-0.245697
-0.210564
-0.142044
-0.087719
-0.073693
-0.025049
-0.013730
-0.020441
-0.036225
-0.066747
-0.107123
-0.138582
-0.184162
-0.230119
-0.258092
-0.269356
-0.305680
-0.289868
-0.273144
-0.247643
-0.202513
-0.156851
-0.104549
-0.061226
-0.029228
-0.006059
-0.004686
-0.004532
-0.006550
-0.037841
-0.069095
-0.119784
-0.176591
-0.225036
-0.254384
-0.268328
-0.287944
-0.307506
-0.274874
-0.214506
-0.173018
-0.133319
-0.084052
-0.026227
-0.011094
0.013320
0.034368
0.014303
-0.015228
-0.036211
-0.081198
-0.125834
-0.172246
-0.213856
-0.249116
-0.269377
-0.271056
-0.274963
-0.271667
-0.252351
-0.201103
-0.156487
-0.108138
-0.051247
-0.014647
0.014978
0.004054
-0.010275
-0.036584
-0.073563
-0.085680
-0.146077
-0.208519
-0.244719
-0.277265
-0.326310
-0.333928
-0.331140
-0.306829
-0.295504
-0.239412
-0.190658
-0.122939
-0.085885
-0.032104
-0.016292
-0.019593
-0.036864
-0.058837
-0.109098
-0.146285
-0.202278
-0.241140
-0.295848
-0.333128
-0.372277
-0.371205
-0.359063
-0.340885
-0.301292
-0.263761
-0.214984
-0.168614
-0.136500
-0.067072
-0.051850
-0.044394
-0.052209
-0.073132
-0.112114
-0.143270
-0.176595
-0.249783
-0.292645
-0.326063
-0.348597
-0.383141
-0.395319
-0.376514
-0.322931
-0.269553
-0.206900
-0.159739
-0.127698
-0.111991
-0.090807
-0.064006
-0.081907
-0.088363
-0.131146
-0.185126
-0.236112
-0.262932
-0.302601
-0.356211
-0.383325
-0.396722
-0.382257
-0.339375
-0.339966
-0.308557
-0.245214
-0.193759
-0.144533
-0.109801
-0.051187
-0.044470
-0.070907
-0.087982
-0.121697
-0.152515
-0.207347
-0.253949
-0.301894
-0.338010
-0.376868
-0.388663
-0.387766
-0.367501
-0.329355
-0.277861
-0.222227
-0.162316
-0.120306
-0.080762
-0.038015
-0.033404
-0.022641
-0.015048
-0.029566
-0.060412
-0.102532
-0.140844
-0.170544
-0.184295
-0.190286
-0.186808
-0.150547
-0.105023
-0.069299
-0.037613
0.044705
0.191801
0.233722
0.298330
0.363730
0.371618
0.405546
0.440510
0.426419
0.430667
0.420887
0.411760
0.377421
0.370546
0.400519
0.397873
0.381039
0.386648
0.419287
0.414682
0.425836
0.430323
0.420016
0.392414
0.371628
0.352903
0.314369
0.252336
0.171253
0.072582
0.009076
-0.026235
-0.073924
-0.129639
-0.151457
-0.169160
-0.200389
-0.188096
-0.148166
-0.110590
-0.097932
-0.065725
-0.085901
-0.112020
-0.054318
-0.050817
0.021368
0.089441
-0.008601
-0.089414
-0.151557
-0.201186
-0.233338
-0.269517
-0.293323
-0.299170
-0.294083
-0.274464
-0.232350
-0.199491
-0.149946
-0.145754
-0.077114
-0.027635
-0.020065
-0.009383
-0.008242
-0.056828
-0.085701
-0.122915
-0.160945
-0.198233
-0.233519
-0.295936
-0.344024
-0.396449
-0.364979
-0.313285
-0.276256
-0.213727
-0.257276
-0.176829
-0.067229
0.008502
0.051337
0.034084
0.035431
0.011145
-0.057958
-0.060687
-0.103926
-0.218393
-0.292223
-0.312753
-0.326540
-0.338321
-0.329032
-0.275893
-0.218776
-0.185608
-0.126816
-0.066495
-0.051856
-0.083782
-0.049460
-0.007477
0.040756
0.044012
-0.041563
-0.113573
-0.155593
-0.227349
-0.263123
-0.284529
-0.329049
-0.304359
-0.277817
-0.243938
-0.256867
-0.195991
-0.207148
-0.141889
-0.031458
0.015778
0.069766
0.051028
0.015690
0.022426
0.004042
-0.044795
-0.095030
-0.124512
-0.169255
-0.227796
-0.276983
-0.306006
-0.290586
-0.266913
-0.237735
-0.187992
-0.131036
-0.076795
-0.023138
0.013733
0.062894
0.060543
0.092547
0.068181
0.008652
-0.029910
-0.063647
-0.125036
-0.166676
-0.194862
-0.224031
-0.209641
-0.252055
-0.224076
-0.158416
-0.105084
-0.056435
-0.015546
0.007839
0.060838
0.083467
0.098295
0.093122
0.070330
0.068321
0.019034
-0.044150
-0.083468
-0.180901
-0.172548
-0.153638
-0.166747
-0.185942
-0.161737
-0.129296
-0.107436
-0.069166
0.016031
0.093999
0.112868
0.089947
0.134492
0.044949
0.004685
0.056835
0.033333
0.007353
-0.082699
-0.138600
-0.161990
-0.183987
-0.193307
-0.211879
-0.152356
-0.114371
-0.101443
-0.048825
0.005688
0.070529
0.090688
0.138923
0.138460
0.126669
0.095156
0.054256
0.002886
-0.041860
-0.095884
-0.158845
-0.225469
-0.249574
-0.246286
-0.172377
-0.157358
-0.121431
-0.078302
-0.019246
0.020119
0.059316
0.063542
0.089476
0.074355
0.076699
0.028401
-0.002442
-0.051594
-0.095083
-0.141036
-0.177439
-0.198258
-0.197106
-0.225846
-0.244398
-0.198010
-0.154462
-0.115079
-0.076152
-0.065340
-0.003355
0.018008
0.082840
0.020423
0.024718
0.006215
-0.045607
-0.078237
-0.120914
-0.173535
-0.211449
-0.274944
-0.284196
-0.285694
-0.288647
-0.259334
-0.213672
-0.161802
-0.107698
-0.048331
-0.020110
-0.006602
0.031818
0.030419
0.014099
-0.001432
-0.033046
-0.089248
-0.148068
-0.186585
-0.234355
-0.267763
-0.290430
-0.293220
-0.296282
-0.277426
-0.238237
-0.193840
-0.149851
-0.104154
-0.056757
-0.017184
0.005356
0.001880
0.003374
-0.011335
-0.039524
-0.083991
-0.140897
-0.187990
-0.229318
-0.280073
-0.302031
-0.307145
-0.327170
-0.291503
-0.253456
-0.209431
-0.142182
-0.089651
-0.054491
-0.035058
-0.010934
0.028603
0.031793
0.019960
-0.058375
-0.119426
-0.161916
-0.162354
-0.236047
-0.265535
-0.292770
-0.298801
-0.285883
-0.260859
-0.227857
-0.195214
-0.158848
-0.099443
-0.070861
-0.017466
0.011052
0.010294
0.004323
-0.013016
-0.038450
-0.071776
-0.132055
-0.169511
-0.238664
-0.279562
-0.278488
-0.308787
-0.313403
-0.283165
-0.240619
-0.198906
-0.129633
-0.070754
-0.038915
-0.014508
0.016136
0.020050
0.031474
-0.009336
-0.082441
-0.114143
-0.140205
-0.171209
-0.207337
-0.248543
-0.266413
-0.271185
-0.264091
-0.243104
-0.213260
-0.173338
-0.123283
-0.079139
-0.029567
-0.017608
0.002400
0.038485
0.011795
-0.042051
-0.073955
-0.102062
-0.122348
-0.165022
-0.208405
-0.241690
-0.281947
-0.268904
-0.268799
-0.246010
-0.229197
-0.189002
-0.151306
-0.107884
-0.077622
-0.046917
-0.009794
0.016780
-0.009284
-0.056361
-0.080912
-0.108044
-0.123194
-0.183651
-0.222039
-0.233610
-0.242465
-0.247080
-0.259145
-0.254790
-0.223949
-0.168751
-0.139008
-0.075339
-0.051430
-0.002078
0.037802
0.021590
-0.009024
-0.027978
-0.076505
-0.112440
-0.151434
-0.203356
-0.214509
-0.239918
-0.276827
-0.308141
-0.293426
-0.259725
-0.241624
-0.184617
-0.118625
-0.079174
-0.044828
-0.004390
0.025242
0.023249
0.004874
-0.041176
-0.090319
-0.124580
-0.175094
-0.231119
-0.269342
-0.283708
-0.297900
-0.279154
-0.260810
-0.263780
-0.224433
-0.184880
-0.132518
-0.087010
-0.058007
0.016430
0.029843
0.023916
0.005567
-0.040810
-0.074157
-0.049833
-0.088285
-0.151279
-0.205398
-0.252614
-0.301485
-0.285670
-0.271923
-0.243943
-0.203831
-0.173730
-0.108741
-0.057270
-0.003199
0.044208
0.070979
0.081520
0.045719
0.026452
-0.002639
-0.053783
-0.121159
-0.176206
-0.211956
-0.262780
-0.276434
-0.290487
-0.282080
-0.249328
-0.204906
-0.161745
-0.121248
-0.082246
-0.021251
0.020263
0.071522
0.094969
0.084262
0.074810
0.053328
-0.022139
-0.076040
-0.130639
-0.205457
-0.228563
-0.248423
-0.246768
-0.252199
-0.237789
-0.214696
-0.182798
-0.129682
-0.064880
-0.018247
0.010482
0.022292
0.039197
0.022402
-0.015314
-0.027778
-0.074198
-0.131076
-0.186696
-0.232865
-0.268225
-0.279078
-0.297237
-0.312358
-0.259617
-0.226305
-0.189154
-0.127455
-0.078144
-0.049738
-0.033571
-0.012713
0.005702
-0.001878
-0.031214
-0.063887
-0.092117
-0.148123
-0.186176
-0.238367
-0.285069
-0.317422
-0.344459
-0.330932
-0.296573
-0.269992
-0.226953
-0.169002
-0.126466
-0.086418
-0.068784
-0.028406
0.010139
-0.034830
-0.045703
-0.075157
-0.129328
-0.162200
-0.204672
-0.250720
-0.294641
-0.323413
-0.324956
-0.281255
-0.258991
-0.258193
-0.229673
-0.185455
-0.114962
-0.096308
-0.071760
-0.039768
-0.023402
-0.036664
-0.050244
-0.088067
-0.128941
-0.168419
-0.217890
-0.246378
-0.263170
-0.288342
-0.316974
-0.338304
-0.299579
-0.247480
-0.211947
-0.167806
-0.134890
-0.110236
-0.082284
-0.053787
-0.042633
-0.050755
-0.051801
-0.083626
-0.137595
-0.196027
-0.230434
-0.266473
-0.301946
-0.321118
-0.307527
-0.284446
-0.292167
-0.255053
-0.201680
-0.129022
-0.092896
-0.067530
-0.018272
0.026880
0.049985
0.042560
0.021325
0.009444
-0.023649
-0.054192
-0.111818
-0.125750
-0.150014
-0.163634
-0.152551
-0.127698
-0.092270
-0.038739
0.041648
0.111571
0.178485
0.241712
0.309025
0.362683
0.399896
0.419551
0.426063
0.422789
0.442000
0.434112
0.427948
0.413371
0.402985
0.410058
0.413272
0.413110
0.441027
0.465593
0.499997
0.525810
0.551769
0.563167
0.542900
0.499429
0.446202
0.415361
0.352218
0.280757
0.201768
0.094887
0.027935
-0.017749
-0.083938
-0.120984
-0.138996
-0.122615
-0.111324
-0.105003
-0.086873
-0.039980
0.008628
0.048368
0.075227
0.091688
0.109591
0.075949
0.058692
0.028710
-0.049218
-0.110741
-0.167445
-0.214093
-0.242786
-0.260241
-0.275084
-0.253571
-0.221007
-0.194858
-0.172853
-0.126232
-0.072941
-0.030004
0.007990
0.051586
0.037768
0.030939
0.008603
-0.031630
-0.065823
-0.104646
-0.151508
-0.196461
-0.241475
-0.278379
-0.268765
-0.250298
-0.244922
-0.214187
-0.188108
-0.125690
-0.056324
-0.007516
0.015917
0.035403
0.036751
0.038097
0.013440
-0.018852
-0.059142
-0.111920
-0.146880
-0.188347
-0.228208
-0.270245
-0.284815
-0.275553
-0.232091
-0.192145
-0.170450
-0.154458
-0.102685
-0.002825
0.038627
0.021329
0.025180
0.034494
0.051600
0.049540
-0.022267
-0.082449
-0.155614
-0.166724
-0.188495
-0.231864
-0.232796
-0.238272
-0.225645
-0.195681
-0.125899
-0.070317
-0.035642
0.012533
0.025859
0.026303
0.062613
0.059670
0.032047
0.021663
0.000030
-0.033634
-0.087853
-0.143547
-0.193281
-0.217118
-0.227964
-0.220751
-0.201551
-0.130544
-0.090595
-0.088391
-0.040428
0.025726
0.065604
0.091291
0.102199
0.109120
0.050411
0.005652
-0.021469
-0.082788
-0.106817
-0.131149
-0.148218
-0.191137
-0.221407
-0.205372
-0.125963
-0.071317
-0.026043
0.005762
0.042087
0.067755
0.082934
0.091302
0.120162
0.145039
0.090390
0.052107
0.010656
-0.037065
-0.061009
-0.077961
-0.107397
-0.133832
-0.143982
-0.122382
-0.132697
-0.093527
-0.038530
-0.010044
0.006611
0.055755
0.091016
0.134768
0.203126
0.142941
0.134315
0.084557
0.019169
-0.006719
-0.035082
-0.053360
-0.058018
-0.107486
-0.131094
-0.122262
-0.118286
-0.135558
-0.113229
-0.052663
0.040634
0.127725
0.144275
0.134285
0.168870
0.165155
0.141740
0.085851
0.055707
0.027361
0.006932
-0.060259
-0.121478
-0.163017
-0.198296
-0.190214
-0.215256
-0.118000
-0.011905
0.041203
0.081719
0.116002
0.158873
0.189245
0.163127
0.126333
0.081383
0.045643
-0.010341
-0.050526
-0.022173
-0.008889
-0.047466
-0.148804
-0.219770
-0.211686
-0.172316
-0.117612
-0.109806
-0.083641
-0.072890
-0.051634
0.069041
0.145958
0.172286
0.175813
0.104561
-0.018614
-0.115663
-0.233945
-0.162180
-0.161921
-0.147317
-0.089527
-0.188269
-0.224926
-0.192222
-0.135003
-0.082803
-0.045705
-0.014245
0.005134
0.029388
0.047826
0.042360
0.092389
0.077720
0.028318
-0.019656
-0.073610
-0.106983
-0.147193
-0.195123
-0.198261
-0.223144
-0.273018
-0.238074
-0.175508
-0.129316
-0.069416
-0.013531
0.030223
0.029052
0.032464
0.076255
0.082906
-0.013042
-0.043893
-0.054637
-0.078797
-0.125231
-0.207439
-0.225683
-0.220991
-0.195735
-0.185255
-0.181829
-0.174315
-0.113473
-0.074620
-0.032914
0.020846
0.059930
0.083740
0.068646
0.057571
0.041833
0.028138
-0.025983
-0.098098
-0.137476
-0.177159
-0.232203
-0.207363
-0.209947
-0.207522
-0.165050
-0.142530
-0.128022
-0.077871
-0.022879
0.048461
0.092450
0.085086
0.077519
0.084301
0.050544
-0.004909
-0.039502
-0.080608
-0.117895
-0.165576
-0.223820
-0.241409
-0.235167
-0.220858
-0.199162
-0.153354
-0.107984
-0.057572
-0.029984
0.021965
0.053163
0.057022
0.088637
0.100431
0.075028
0.034953
-0.021849
-0.070547
-0.125447
-0.176423
-0.212898
-0.233618
-0.226793
-0.220698
-0.195222
-0.146357
-0.107627
-0.053155
-0.012558
0.026263
0.078668
0.088549
0.075720
0.065521
0.023680
0.017613
-0.018872
-0.071410
-0.126902
-0.186238
-0.207216
-0.210467
-0.224361
-0.252180
-0.227284
-0.189352
-0.116983
-0.068044
-0.014816
0.027246
0.075583
0.108475
0.115346
0.096245
0.052824
0.018089
-0.003491
-0.058897
-0.102318
-0.137423
-0.220140
-0.252448
-0.243791
-0.229231
-0.183169
-0.158751
-0.128600
-0.096304
-0.029032
0.012181
0.031801
0.054499
0.076772
0.079653
0.055799
0.039892
-0.010119
-0.048119
-0.098237
-0.148110
-0.187718
-0.200066
-0.249677
-0.235733
-0.179318
-0.135622
-0.139041
-0.081866
-0.051852
-0.015918
0.038372
0.103136
0.098693
0.065076
0.043721
0.037641
-0.010216
-0.065678
-0.092712
-0.110861
-0.155975
-0.187385
-0.208744
-0.186002
-0.169300
-0.159172
-0.108837
-0.042022
-0.007249
0.014727
0.078607
0.095364
0.096982
0.095605
0.088647
0.068442
0.023512
-0.027300
-0.061212
-0.086646
-0.142739
-0.170097
-0.183361
-0.163012
-0.148175
-0.127227
-0.098321
-0.040103
0.016104
0.056054
0.103109
0.112241
0.120694
0.097453
0.087935
0.045263
0.015768
-0.013761
-0.057569
-0.087143
-0.098718
-0.111412
-0.129105
-0.126586
-0.120495
-0.106558
-0.078816
-0.020393
0.057038
0.126668
0.137458
0.141366
0.127695
0.117388
0.090642
0.070520
0.006517
-0.027695
-0.073748
-0.088088
-0.123239
-0.146946
-0.151407
-0.160339
-0.130600
-0.083068
-0.056368
-0.008253
0.030693
0.061274
0.095503
0.106393
0.112282
0.115256
0.073794
0.038618
-0.003302
-0.053697
-0.099386
-0.132318
-0.157871
-0.187672
-0.191070
-0.207850
-0.194765
-0.138308
-0.081324
-0.023783
0.027179
0.035921
0.076319
0.092500
0.100285
0.086680
0.046039
0.014565
-0.034394
-0.090294
-0.122998
-0.136416
-0.176549
-0.214722
-0.216310
-0.199384
-0.151629
-0.120114
-0.103798
-0.060826
-0.017544
0.034845
0.092038
0.104689
0.112065
0.091202
0.088157
0.049398
-0.002173
-0.064613
-0.106388
-0.148258
-0.190801
-0.206426
-0.222396
-0.223191
-0.198086
-0.160083
-0.106068
-0.056270
0.014875
0.046439
0.081655
0.108555
0.115095
0.109835
0.099999
0.059397
0.008600
-0.059884
-0.107652
-0.146848
-0.191437
-0.203496
-0.215466
-0.238502
-0.197407
-0.165453
-0.122207
-0.061800
-0.001961
0.036656
0.056910
0.092910
0.137738
0.110122
0.067599
0.038305
0.013704
-0.028693
-0.083795
-0.136268
-0.185335
-0.204540
-0.221588
-0.209660
-0.140734
-0.100086
-0.060530
0.015078
0.076308
0.120420
0.184001
0.238577
0.246942
0.248912
0.248684
0.261029
0.223166
0.167444
0.137975
0.115725
0.110410
0.155831
0.193976
0.212670
0.254873
0.299288
0.353282
0.430640
0.522905
0.610531
0.695670
0.747562
0.779121
0.797506
0.785980
0.759862
0.722586
0.688534
0.645873
0.593896
0.520398
0.456260
0.415038
0.366335
0.337888
0.308843
0.287604
0.314956
0.319199
0.308790
0.310352
0.305031
0.298781
0.273368
0.247884
0.204141
0.143659
0.110460
0.061399
0.008736
-0.034454
-0.033030
-0.062699
-0.065782
-0.035318
-0.022238
0.023755
0.052644
0.079229
0.107095
0.159751
0.196342
0.193511
0.160261
0.135990
0.112262
0.077547
0.007728
-0.050654
-0.071959
-0.077344
-0.104801
-0.126841
-0.117615
-0.096037
-0.059776
-0.010822
0.030675
0.068005
0.104613
0.136040
0.155215
0.157439
0.160952
0.122418
0.073047
0.070136
0.012925
-0.035479
-0.071814
-0.114038
-0.113752
-0.124632
-0.116514
-0.089879
-0.052380
0.000459
0.028709
0.079125
0.114266
0.161392
0.185964
0.194719
0.186627
0.152504
0.115819
0.070254
0.025366
-0.028741
-0.089266
-0.130770
-0.123806
-0.128767
-0.114942
-0.088472
-0.051167
-0.002783
0.039262
0.107874
0.148228
0.205758
0.212660
0.200674
0.202369
0.173280
0.119129
0.091236
0.045072
-0.004275
-0.015853
-0.049383
-0.057462
-0.073775
-0.095374
-0.092435
-0.047965
-0.021877
0.044750
0.111657
0.169804
0.238298
0.250770
0.250977
0.249535
0.234496
0.195018
0.151687
0.087086
0.050013
-0.020616
-0.020674
-0.034801
-0.070134
-0.059385
-0.031987
-0.016472
0.040478
0.087784
0.128342
0.187174
0.254772
0.288627
0.295134
0.282643
0.253924
0.233330
0.205127
0.151578
0.102122
0.037222
-0.016202
-0.043428
-0.046302
-0.010844
-0.001751
0.019727
0.067471
0.136432
0.185674
0.223417
0.273534
0.298134
0.306121
0.299647
0.284890
0.270633
0.243790
0.187026
0.110470
0.073602
0.013432
-0.016078
-0.046543
-0.030525
0.015391
0.083992
0.128116
0.154733
0.183342
0.253045
0.304208
0.314805
0.313323
0.305305
0.291301
0.250959
0.219946
0.177911
0.118098
0.075529
0.042968
0.029492
0.019739
0.025132
0.042610
0.070467
0.117250
0.169233
0.198596
0.244846
0.277499
0.291908
0.285507
0.295958
0.277502
0.239873
0.172526
0.127339
0.078630
0.031919
0.006463
0.008773
0.012282
0.019924
0.041764
0.071363
0.093797
0.122965
0.165289
0.223275
0.249664
0.276390
0.282709
0.257422
0.228961
0.194792
0.145096
0.101599
0.054984
-0.002580
-0.026648
-0.043251
-0.043053
-0.025610
0.012421
0.052367
0.088035
0.117310
0.163615
0.194635
0.234011
0.244836
0.240240
0.241082
0.204747
0.154450
0.100779
0.053117
0.013483
-0.024129
-0.086473
-0.073640
-0.040567
-0.036937
-0.041309
-0.004517
0.054933
0.082464
0.112688
0.164027
0.227925
0.246123
0.254534
0.248061
0.199427
0.149135
0.112053
0.070821
0.018726
-0.015639
-0.073498
-0.092566
-0.079202
-0.073006
-0.069825
-0.023978
0.021970
0.070029
0.126012
0.164156
0.200714
0.217124
0.241690
0.234486
0.220730
0.201015
0.147632
0.083469
0.027169
-0.013788
-0.041605
-0.057725
-0.078227
-0.065777
-0.044870
-0.001234
0.044709
0.095747
0.125109
0.183683
0.236931
0.261011
0.257537
0.264280
0.255539
0.203416
0.150318
0.100559
0.038875
0.009266
-0.009516
-0.064302
-0.071866
-0.043303
-0.016238
0.015616
0.052878
0.094428
0.156488
0.190660
0.213254
0.239197
0.262471
0.233687
0.218355
0.175465
0.153610
0.109666
0.090096
0.036160
-0.027883
-0.060835
-0.033348
-0.047384
-0.038451
0.001543
0.033215
0.098994
0.158825
0.195618
0.195859
0.202116
0.233601
0.219946
0.226523
0.187712
0.131015
0.105879
0.086046
0.040465
0.029802
-0.002499
-0.058198
-0.027045
-0.049126
-0.057360
0.014179
0.075924
0.154764
0.252388
0.262224
0.300812
0.291832
0.297527
0.189937
0.117569
0.057657
0.064204
0.098480
0.072305
0.047190
0.037073
-0.000233
0.003810
-0.029479
-0.002842
0.024739
0.031665
0.090923
0.154174
0.212593
0.248353
0.270997
0.262711
0.203584
0.173521
0.170681
0.127291
0.066517
0.032350
-0.011118
-0.043905
-0.049192
-0.043730
0.068091
0.080322
0.075769
0.100557
0.125093
0.163821
0.241079
0.258465
0.252843
0.252722
0.212379
0.161381
0.144218
0.082256
0.040382
-0.014006
-0.042513
-0.052297
-0.056922
-0.030125
0.004823
0.024594
0.059566
0.080281
0.156481
0.216368
0.243439
0.261336
0.265243
0.283987
0.245748
0.212694
0.173984
0.128283
0.064063
0.015183
-0.011960
-0.046364
-0.059193
-0.021110
0.025941
0.051415
0.089741
0.169229
0.192249
0.239111
0.243404
0.265014
0.279946
0.264945
0.243060
0.202981
0.161484
0.113461
0.082304
0.047841
-0.001782
0.013679
-0.012646
-0.024450
-0.000326
0.039538
0.074272
0.135113
0.189186
0.243445
0.289056
0.313563
0.307177
0.298179
0.276838
0.241660
0.200898
0.153721
0.103050
0.046841
-0.010879
-0.028433
-0.047002
-0.036455
-0.007691
0.026262
0.049297
0.104333
0.143535
0.172379
0.196375
0.250270
0.287670
0.258409
0.226382
0.201887
0.172371
0.119654
0.064468
0.013023
-0.040311
-0.062814
-0.102694
-0.074151
-0.041655
-0.008588
0.025619
0.054606
0.100173
0.141574
0.178520
0.206217
0.211079
0.211066
0.202970
0.176637
0.132269
0.082312
0.028841
-0.005165
-0.059900
-0.080035
-0.099181
-0.101785
-0.078342
-0.040502
-0.003321
0.039695
0.083227
0.143704
0.173020
0.213291
0.219823
0.200655
0.172712
0.135378
0.074773
0.018015
0.016286
-0.008808
-0.049797
-0.075508
-0.095668
-0.082059
-0.056051
-0.040325
0.001827
0.067823
0.100635
0.124974
0.163022
0.194337
0.199989
0.191988
0.179202
0.134067
0.094431
0.050795
-0.003182
-0.037268
-0.063142
-0.078604
-0.095855
-0.067433
-0.060335
-0.021358
0.022584
0.051906
0.105450
0.156259
0.177598
0.201610
0.210358
0.187051
0.131675
0.094855
0.056501
0.025166
-0.032197
-0.067031
-0.099313
-0.099445
-0.081908
-0.072649
-0.053687
0.007470
0.068767
0.108060
0.170226
0.252750
0.333249
0.341593
0.347676
0.333967
0.336554
0.302228
0.286418
0.261497
0.221555
0.242357
0.237557
0.254843
0.280706
0.326251
0.412266
0.438685
0.514098
0.609023
0.695776
0.770596
0.849248
0.905703
0.954848
0.956531
0.929220
0.883279
0.841057
0.769010
0.699293
0.660963
0.588208
0.527697
0.454005
0.384538
0.342804
0.343870
0.370376
0.392392
0.390609
0.398244
0.409322
0.386678
0.391358
0.375480
0.332149
0.279378
0.237450
0.186038
0.125863
0.063084
0.038339
-0.001816
-0.033646
-0.052268
-0.027494
0.012195
0.063185
0.116331
0.146856
0.194646
0.229431
0.243921
0.248333
0.235534
0.219022
0.180996
0.152331
0.104699
0.054999
0.004913
-0.030980
-0.057898
-0.065507
-0.082675
-0.072103
-0.035076
0.021642
0.065068
0.111071
0.152501
0.176196
0.201532
0.212004
0.215634
0.187615
0.161861
0.119046
0.070107
0.017341
-0.022843
-0.062553
-0.074297
-0.082810
-0.078200
-0.057243
-0.025820
0.004165
0.055177
0.107272
0.161570
0.200379
0.230203
0.224063
0.200703
0.179479
0.150530
0.121248
0.059499
0.026110
0.005922
-0.032978
-0.062098
-0.069853
-0.083015
-0.060643
-0.036035
0.007697
0.068507
0.139543
0.192939
0.208843
0.253165
0.231568
0.189173
0.171311
0.162607
0.131343
0.079050
0.054212
0.009324
-0.035220
-0.030605
-0.055795
-0.055430
0.004019
0.036269
0.061254
0.115095
0.161481
0.200481
0.214508
0.238140
0.260351
0.245924
0.221099
0.186808
0.134033
0.084905
0.047558
0.004184
-0.024311
-0.037563
-0.029255
-0.004698
0.034929
0.076614
0.099535
0.153017
0.190231
0.239589
0.270016
0.298630
0.325609
0.280182
0.257050
0.202919
0.175070
0.139143
0.101039
0.062980
0.011296
-0.022441
0.009169
0.016182
0.021171
0.066395
0.094505
0.151061
0.204040
0.254445
0.284715
0.321936
0.325127
0.325643
0.298333
0.234774
0.205067
0.167250
0.108717
0.052135
0.018618
-0.009086
-0.002813
0.008992
0.032109
0.065343
0.106027
0.161815
0.211741
0.260166
0.313348
0.330287
0.334467
0.312733
0.290899
0.257850
0.217098
0.168468
0.112646
0.056567
0.011052
-0.007680
-0.029245
-0.022403
-0.008835
0.030066
0.081570
0.125304
0.179563
0.229504
0.268064
0.301330
0.303884
0.309465
0.310911
0.279356
0.237254
0.142688
0.076805
0.033732
0.002596
-0.024659
-0.039454
-0.044147
-0.012233
0.027585
0.061124
0.102261
0.148073
0.193085
0.238820
0.267593
0.266833
0.260785
0.231112
0.196248
0.163862
0.121948
0.053191
0.012949
-0.008365
-0.037660
-0.049803
-0.046357
-0.026692
0.013357
0.045638
0.087775
0.135198
0.162280
0.196638
0.222934
0.233744
0.211477
0.184750
0.163921
0.139684
0.074317
0.031633
-0.009849
-0.062241
-0.072401
-0.068137
-0.050044
-0.033511
-0.003506
0.022171
0.085435
0.121758
0.146005
0.190394
0.208083
0.196542
0.194450
0.169175
0.121162
0.091405
0.052862
0.013141
-0.017299
-0.054140
-0.080103
-0.077245
-0.055587
-0.037940
-0.011403
0.025023
0.060904
0.117707
0.160915
0.181995
0.196675
0.203537
0.225254
0.191580
0.121857
0.092737
0.046543
0.002953
-0.025391
-0.053199
-0.076401
-0.097400
-0.089900
-0.075013
-0.049068
0.055919
0.087968
0.104627
0.158490
0.195474
0.208542
0.231622
0.234171
0.167767
0.129467
0.093643
0.045590
0.007253
-0.035145
-0.070819
-0.084423
-0.093040
-0.083428
-0.062563
-0.019261
0.029673
0.072807
0.123386
0.184674
0.224454
0.249065
0.244081
0.230710
0.195342
0.165244
0.110224
0.053532
0.001315
-0.040310
-0.074342
-0.098864
-0.117908
-0.107159
-0.060734
-0.021839
0.019214
0.086720
0.137485
0.159562
0.209665
0.210583
0.237122
0.213107
0.170264
0.135406
0.109732
0.051610
-0.008997
-0.059005
-0.074867
-0.085533
-0.093897
-0.118254
-0.102260
-0.061168
0.008741
0.043724
0.080339
0.140331
0.177404
0.226398
0.237258
0.209634
0.191862
0.147554
0.102209
0.059203
0.017381
-0.027690
-0.075699
-0.100175
-0.117894
-0.117910
-0.067736
-0.050906
0.003347
0.043288
0.098759
0.135213
0.155430
0.181571
0.210762
0.193284
0.169249
0.142426
0.104660
0.044931
0.013095
-0.050255
-0.094033
-0.102014
-0.073704
-0.098142
-0.061963
-0.048174
-0.015838
0.033661
0.083235
0.121344
0.167803
0.183961
0.201025
0.200278
0.176112
0.146207
0.106055
0.063999
0.019761
-0.025932
-0.051425
-0.070190
-0.085786
-0.084874
-0.076036
-0.031547
0.008593
0.046143
0.108582
0.163093
0.193172
0.211005
0.211374
0.202949
0.172686
0.131863
0.086661
0.040153
-0.001772
-0.053472
-0.076741
-0.097245
-0.086123
-0.071681
-0.038195
-0.018451
0.027830
0.094526
0.138267
0.171519
0.202057
0.240933
0.249691
0.237935
0.202160
0.152288
0.118489
0.065386
0.045329
-0.002728
-0.062052
-0.077099
-0.074915
-0.059894
-0.040828
-0.003180
0.018016
0.043533
0.081470
0.141485
0.196749
0.210648
0.219985
0.217846
0.185408
0.157020
0.080402
0.031316
-0.019304
-0.092430
-0.115494
-0.134619
-0.134350
-0.119989
-0.096451
-0.077625
-0.025425
0.029296
0.080573
0.122204
0.150014
0.169995
0.169465
0.159088
0.148992
0.102141
0.025233
-0.037779
-0.052819
-0.107969
-0.149599
-0.165335
-0.180881
-0.172715
-0.142570
-0.113726
-0.051384
-0.015788
0.026498
0.093195
0.120209
0.135647
0.164279
0.134435
0.114012
0.075297
0.028722
-0.017285
-0.046987
-0.103197
-0.153972
-0.195357
-0.193826
-0.183735
-0.129249
-0.103601
-0.052381
-0.013445
0.031733
0.086052
0.125065
0.155375
0.169235
0.145097
0.101589
0.062035
0.032547
-0.021098
-0.065395
-0.112393
-0.154022
-0.190687
-0.203319
-0.173306
-0.156071
-0.116966
-0.071426
-0.035858
0.016668
0.076584
0.107127
0.128909
0.135227
0.124250
0.100377
0.088506
0.049448
-0.027231
-0.077919
-0.107024
-0.147334
-0.181487
-0.195209
-0.191566
-0.151370
-0.099243
-0.086761
-0.038989
0.010590
0.056468
0.101307
0.155569
0.178472
0.190781
0.171683
0.130056
0.124005
0.095282
0.066489
0.029812
0.014703
0.008204
0.006751
0.055567
0.100994
0.150778
0.228422
0.285586
0.371613
0.439907
0.516040
0.558658
0.606670
0.618000
0.640174
0.659754
0.656213
0.639195
0.643467
0.620406
0.609469
0.611273
0.597263
0.594147
0.600493
0.603737
0.621922
0.651737
0.663891
0.678423
0.638892
0.573968
0.517869
0.457176
0.395494
0.329292
0.260584
0.166550
0.115765
0.054622
0.006288
-0.037418
-0.077944
-0.067307
-0.014663
0.014154
0.054179
0.085648
0.119342
0.166681
0.186905
0.193267
0.191675
0.160098
0.139384
0.116443
0.074812
0.030636
-0.027567
-0.067935
-0.100426
-0.130006
-0.146030
-0.112242
-0.087833
-0.059651
-0.007973
0.026236
0.069806
0.105307
0.130199
0.154462
0.171298
0.142900
0.109494
0.070794
0.012537
-0.030572
-0.071501
-0.122871
-0.144311
-0.151266
-0.188171
-0.163532
-0.150192
-0.098814
-0.053881
-0.008431
0.046869
0.103245
0.137186
0.154288
0.145688
0.120496
0.108655
0.075798
0.038059
-0.013923
-0.063664
-0.120710
-0.155889
-0.176631
-0.176368
-0.168490
-0.131676
-0.105078
-0.037867
0.010337
0.053169
0.110085
0.122526
0.139705
0.152655
0.135265
0.129684
0.103948
0.058854
0.003339
-0.055862
-0.095215
-0.137924
-0.160592
-0.157735
-0.139448
-0.115546
-0.076219
-0.036151
0.003513
0.065514
0.101071
0.145849
0.176461
0.182140
0.177078
0.153044
0.119873
0.089178
0.040253
0.003035
-0.048251
-0.090728
-0.115855
-0.110628
-0.105243
-0.091827
-0.073639
-0.022440
0.021333
0.085650
0.127596
0.155270
0.184110
0.192064
0.183294
0.151176
0.126928
0.098006
0.066225
0.056238
-0.015418
-0.027439
-0.057706
-0.090324
-0.093393
-0.053373
-0.000210
0.043004
0.078142
0.114234
0.164601
0.183510
0.231827
0.219707
0.190024
0.182048
0.169749
0.144846
0.082667
0.031602
-0.003175
-0.032908
-0.055011
-0.066541
-0.050081
-0.053594
-0.002914
0.029055
0.066935
0.103281
0.142699
0.174986
0.203562
0.224455
0.236075
0.174061
0.144344
0.117641
0.081528
0.052224
-0.002691
-0.053133
-0.067649
-0.078103
-0.061177
-0.040097
0.002707
0.036691
0.079949
0.114111
0.176267
0.200545
0.225567
0.231981
0.223369
0.204448
0.166631
0.104478
0.053435
0.014157
-0.027344
-0.075134
-0.108787
-0.101494
-0.088967
-0.047281
-0.017769
0.010137
0.046069
0.125205
0.152214
0.176836
0.167528
0.191214
0.195797
0.151246
0.106808
0.071250
0.015308
-0.032643
-0.073431
-0.115112
-0.127590
-0.131512
-0.132950
-0.122369
-0.094334
-0.041329
0.022494
0.068238
0.122640
0.151765
0.159298
0.158612
0.157365
0.137145
0.082587
0.028192
-0.023823
-0.078900
-0.110548
-0.153869
-0.191562
-0.189860
-0.188928
-0.167702
-0.125281
-0.076926
-0.029534
0.023552
0.081961
0.109614
0.140081
0.164403
0.155264
0.141156
0.092342
0.054111
-0.005228
-0.067320
-0.162010
-0.209161
-0.191002
-0.187295
-0.185217
-0.194350
-0.158389
-0.104171
-0.063674
-0.010074
0.042587
0.102843
0.143606
0.127682
0.117062
0.099512
0.076882
0.033525
-0.011229
-0.064417
-0.114288
-0.155399
-0.184120
-0.187459
-0.183228
-0.168462
-0.138656
-0.092068
-0.060702
0.017261
0.066461
0.095025
0.129529
0.139057
0.115038
0.093142
0.062500
0.018581
-0.024762
-0.066904
-0.138112
-0.151600
-0.160108
-0.173834
-0.161510
-0.147847
-0.127926
-0.078222
-0.042711
0.009404
0.112593
0.108399
0.093692
0.109458
0.137753
0.116238
0.045098
0.023813
-0.014861
-0.054784
-0.103822
-0.141072
-0.163171
-0.164560
-0.172876
-0.159990
-0.125717
-0.084960
-0.028903
0.033234
0.058817
0.091502
0.122550
0.129430
0.139166
0.118112
0.063096
0.016892
-0.025963
-0.060595
-0.100510
-0.140036
-0.171634
-0.159488
-0.167469
-0.146539
-0.113873
-0.073100
-0.030843
0.026989
0.084274
0.105818
0.119800
0.107011
0.098273
0.075219
0.049513
0.007332
-0.050566
-0.089431
-0.129708
-0.164356
-0.186562
-0.176963
-0.169702
-0.146945
-0.125174
-0.088511
-0.035349
0.010666
0.060356
0.105404
0.131169
0.132687
0.114113
0.094200
0.049581
-0.001010
-0.018458
-0.080600
-0.127514
-0.174883
-0.197225
-0.212858
-0.205107
-0.164343
-0.131743
-0.083206
-0.027497
0.020594
0.077564
0.113385
0.137763
0.125881
0.121520
0.104071
0.057397
-0.001763
-0.053340
-0.101499
-0.143718
-0.170715
-0.189759
-0.195040
-0.183521
-0.165626
-0.115458
-0.062101
0.001721
0.057467
0.097186
0.128333
0.152113
0.166819
0.154866
0.136507
0.097618
0.009330
-0.045129
-0.076144
-0.116465
-0.143834
-0.168536
-0.176638
-0.156864
-0.140496
-0.121408
-0.077882
-0.019614
0.032661
0.083332
0.125394
0.131145
0.132837
0.136362
0.141119
0.099677
0.068298
0.007001
-0.060897
-0.105150
-0.141617
-0.154955
-0.150501
-0.154171
-0.142477
-0.104427
-0.057124
-0.006549
0.025255
0.057322
0.104981
0.147562
0.165020
0.142323
0.108166
0.087971
0.046320
-0.000707
-0.059498
-0.114402
-0.150736
-0.177641
-0.200606
-0.191464
-0.178729
-0.157892
-0.103690
-0.041710
0.002871
0.039178
0.066366
0.069131
0.068217
0.075063
0.054260
0.026615
-0.014167
-0.066723
-0.119979
-0.159257
-0.190848
-0.194504
-0.195733
-0.188652
-0.187833
-0.169172
-0.126342
-0.086161
-0.036355
0.008994
0.035335
0.053783
0.055822
0.045709
0.033334
0.005010
-0.031585
-0.072700
-0.104550
-0.146768
-0.194163
-0.236120
-0.225433
-0.225977
-0.195733
-0.172161
-0.136204
-0.093106
-0.041808
-0.023713
0.018970
0.038860
0.049052
0.040548
0.023679
-0.013377
-0.039069
-0.090576
-0.142759
-0.166933
-0.196450
-0.213063
-0.237544
-0.251396
-0.224188
-0.183146
-0.134206
-0.092841
-0.045975
-0.006684
0.023168
0.044742
0.041681
0.020294
-0.001590
-0.019967
-0.054632
-0.121599
-0.164905
-0.177342
-0.197612
-0.218993
-0.230110
-0.236911
-0.215771
-0.167256
-0.145105
-0.107650
-0.027188
0.006702
0.020831
0.048426
0.048340
0.033589
-0.000798
-0.025697
-0.063010
-0.094282
-0.130432
-0.169895
-0.176245
-0.169178
-0.170592
-0.137483
-0.096144
-0.049075
-0.010639
0.040945
0.113658
0.199875
0.263966
0.308942
0.345433
0.377514
0.376325
0.391011
0.378304
0.355350
0.339135
0.329544
0.328926
0.336107
0.356251
0.437482
0.502677
0.574974
0.652971
0.722749
0.776184
0.827212
0.855430
0.863849
0.860714
0.837712
0.786584
0.721946
0.648465
0.497033
0.368830
0.273444
0.182827
0.103609
0.069300
-0.008207
-0.023639
0.008938
0.059304
0.119841
0.175076
0.186890
0.196667
0.216686
0.215541
0.208741
0.155528
0.112767
0.067753
0.025641
-0.038487
-0.102079
-0.133798
-0.163188
-0.184570
-0.177709
-0.154690
-0.123724
-0.081511
-0.048752
0.002442
0.047928
0.100530
0.114828
0.122139
0.117601
0.091723
0.047860
0.000674
-0.048433
-0.096211
-0.149818
-0.196129
-0.217113
-0.224060
-0.219876
-0.214330
-0.167994
-0.112264
-0.059520
-0.022272
0.006281
0.063737
0.088174
0.086371
0.089613
0.067673
0.046550
0.011682
-0.038428
-0.104103
-0.161360
-0.188658
-0.227461
-0.237083
-0.219109
-0.193372
-0.141779
-0.140034
-0.095071
-0.031472
-0.000222
0.030130
0.070071
0.069467
0.073676
0.062477
0.032474
-0.017739
-0.067629
-0.102847
-0.140624
-0.175697
-0.172840
-0.215107
-0.213667
-0.156631
-0.115310
-0.080138
-0.035609
-0.000220
0.034787
0.078979
0.090529
0.097364
0.081895
0.039800
0.023182
0.011799
-0.015172
-0.076617
-0.118673
-0.135440
-0.173524
-0.174893
-0.152777
-0.133190
-0.114110
-0.082049
-0.048327
0.002364
0.045161
0.090289
0.122972
0.119660
0.128760
0.123548
0.078501
0.035462
-0.010569
-0.051913
-0.095550
-0.125738
-0.133714
-0.141035
-0.141179
-0.115847
-0.080391
-0.032328
0.014734
0.060220
0.102339
0.130860
0.141927
0.146888
0.139922
0.099917
0.075791
0.038698
0.002404
-0.042634
-0.078327
-0.106687
-0.131083
-0.139582
-0.116244
-0.089601
-0.043765
-0.000565
0.021065
0.074018
0.123330
0.159137
0.185624
0.177053
0.159805
0.128037
0.091923
0.047272
-0.005340
-0.054433
-0.091711
-0.110769
-0.124289
-0.118990
-0.116310
-0.109915
-0.067657
-0.015509
0.041048
0.094404
0.114994
0.153324
0.149151
0.161724
0.154402
0.132902
0.093337
0.059802
0.012646
-0.037946
-0.104810
-0.141666
-0.159072
-0.170575
-0.145092
-0.118848
-0.079850
-0.043896
-0.000996
0.036816
0.088149
0.135375
0.156657
0.166086
0.159660
0.128333
0.074427
0.029186
-0.025156
-0.083785
-0.130767
-0.172555
-0.201593
-0.187192
-0.186548
-0.168658
-0.123765
-0.088648
-0.038613
0.008447
0.048700
0.093579
0.123227
0.151365
0.139587
0.099502
0.059458
0.012015
-0.051949
-0.107547
-0.140908
-0.183898
-0.213585
-0.233898
-0.227602
-0.208767
-0.160707
-0.118832
-0.072565
-0.015649
0.034407
0.082055
0.110573
0.119222
0.109147
0.079426
0.037996
-0.013687
-0.055935
-0.104987
-0.164995
-0.217835
-0.234903
-0.225666
-0.226441
-0.213646
-0.186216
-0.143135
-0.094842
-0.026809
0.010901
0.044365
0.083673
0.088703
0.078169
0.055988
0.022941
-0.014097
-0.050967
-0.116648
-0.166658
-0.204950
-0.234723
-0.232570
-0.225469
-0.206544
-0.184575
-0.138003
-0.085938
-0.032614
0.000004
0.040558
0.057871
0.063192
0.058113
0.049519
0.019572
0.005432
-0.049789
-0.077336
-0.124905
-0.184965
-0.224395
-0.216374
-0.218671
-0.190904
-0.160783
-0.120395
-0.079370
-0.035748
0.010941
0.051666
0.064245
0.079377
0.063872
0.044625
0.021852
-0.034862
-0.070503
-0.103880
-0.143780
-0.172131
-0.210223
-0.198352
-0.175451
-0.171314
-0.170194
-0.113575
-0.050605
-0.010032
0.043052
0.081242
0.077827
0.071496
0.064857
0.052439
0.022047
-0.021973
-0.061299
-0.117340
-0.153521
-0.183124
-0.193508
-0.191293
-0.194888
-0.184659
-0.149195
-0.112924
-0.042823
-0.001118
0.031544
0.059783
0.085567
0.083402
0.075070
0.039837
0.015684
-0.026828
-0.064364
-0.128191
-0.162933
-0.187021
-0.202242
-0.214627
-0.202895
-0.182353
-0.147331
-0.104139
-0.053235
-0.007863
0.027345
0.056843
0.073469
0.073260
0.064975
0.039235
0.000156
-0.045454
-0.095620
-0.130350
-0.167249
-0.207778
-0.235014
-0.234597
-0.218144
-0.190275
-0.138937
-0.099724
-0.061823
-0.011414
0.033853
0.053381
0.075171
0.066609
0.064080
0.046279
-0.001269
-0.041557
-0.099646
-0.149835
-0.183353
-0.208056
-0.239359
-0.238186
-0.238520
-0.204968
-0.173738
-0.119184
-0.061471
0.002522
0.067716
0.091002
0.115904
0.118674
0.101094
0.063086
0.021064
-0.018185
-0.057509
-0.112266
-0.150993
-0.166678
-0.205173
-0.214393
-0.200957
-0.166250
-0.120804
-0.078472
-0.039564
0.018368
0.058623
0.094692
0.105198
0.114439
0.112325
0.085812
0.045755
-0.013002
-0.064857
-0.112041
-0.151515
-0.182396
-0.200074
-0.227781
-0.215566
-0.181033
-0.137776
-0.079993
-0.038521
0.010082
0.064092
0.102327
0.128872
0.132449
0.128442
0.090766
0.059920
0.026496
-0.014917
-0.079722
-0.140346
-0.164429
-0.177697
-0.186737
-0.180064
-0.174448
-0.140507
-0.089533
-0.045055
0.000138
0.035276
0.071330
0.094752
0.095608
0.085118
0.062762
0.017001
-0.020465
-0.059630
-0.101382
-0.144622
-0.181373
-0.209016
-0.233340
-0.245636
-0.252697
-0.198846
-0.150077
-0.095240
-0.059647
-0.027288
0.021841
0.035602
0.055359
0.048251
0.041123
0.000301
-0.040936
-0.106123
-0.140814
-0.178009
-0.207961
-0.228622
-0.235832
-0.245242
-0.227554
-0.201260
-0.178693
-0.148584
-0.048421
-0.009185
-0.006852
0.015485
0.034899
0.026159
0.013169
-0.000756
-0.041510
-0.092680
-0.161632
-0.216360
-0.239532
-0.257093
-0.253433
-0.228333
-0.212699
-0.194233
-0.157234
-0.122371
-0.066200
-0.021391
0.005818
0.038257
0.042882
0.011694
-0.018062
-0.060020
-0.089253
-0.128535
-0.173304
-0.206165
-0.247736
-0.258140
-0.257987
-0.254036
-0.238677
-0.192971
-0.148941
-0.108004
-0.055996
-0.026365
0.001602
0.010497
0.018080
0.016312
-0.005631
-0.027692
-0.076044
-0.120916
-0.189651
-0.217331
-0.248023
-0.276465
-0.276161
-0.271454
-0.254515
-0.214965
-0.160243
-0.089977
-0.035109
-0.001005
0.036038
0.072199
0.088560
0.073236
0.089436
0.068819
0.041105
-0.007272
-0.030969
-0.053050
-0.055143
-0.036479
-0.016790
0.021977
0.071112
0.145560
0.243217
0.324306
0.415001
0.469091
0.524275
0.582825
0.632626
0.660473
0.669790
0.674921
0.669568
0.651001
0.637575
0.582206
0.549319
0.532873
0.529569
0.526759
0.524313
0.526894
0.552416
0.546221
0.514820
0.499382
0.470618
0.446456
0.404339
0.347945
0.265821
0.207501
0.142081
0.078763
0.019318
-0.018490
-0.062193
-0.098865
-0.115327
-0.125728
-0.114465
-0.094104
-0.052009
0.003889
0.043529
0.084624
0.116746
0.144913
0.138944
0.129893
0.096481
0.052100
-0.004792
-0.058648
-0.134129
-0.178639
-0.203203
-0.240606
-0.242323
-0.227062
-0.212215
-0.183302
-0.135376
-0.085825
-0.025520
0.031350
0.056910
0.088018
0.091979
0.078596
0.061420
0.018661
-0.031622
-0.090922
-0.137081
-0.175916
-0.216036
-0.238166
-0.257269
-0.249217
-0.224646
-0.188182
-0.147819
-0.097066
-0.037646
0.008221
0.051402
0.061695
0.071595
0.070373
0.054522
0.004543
-0.031870
-0.069002
-0.125625
-0.164544
-0.198413
-0.225722
-0.234349
-0.233233
-0.214737
-0.175932
-0.131434
-0.087257
-0.027625
0.021294
0.051667
0.074458
0.087315
0.059981
0.057749
0.033125
-0.010272
-0.050224
-0.100610
-0.137441
-0.175987
-0.205644
-0.224623
-0.223079
-0.180578
-0.134684
-0.094228
-0.050672
0.005281
0.013727
0.052006
0.083339
0.112870
0.099898
0.087235
0.041214
-0.002494
-0.017290
-0.076582
-0.125125
-0.150987
-0.177354
-0.179053
-0.157057
-0.139250
-0.117528
-0.074857
-0.030211
0.006734
0.042723
0.096770
0.119618
0.117445
0.121560
0.112495
0.084119
0.035419
-0.006187
-0.058792
-0.094805
-0.128800
-0.142917
-0.137721
-0.125561
-0.111586
-0.085584
-0.045538
0.007893
0.048618
0.094864
0.140338
0.156338
0.163908
0.151587
0.114251
0.088120
0.058131
0.000702
-0.049572
-0.075096
-0.090146
-0.129344
-0.135386
-0.119383
-0.091527
-0.047470
0.006474
0.055002
0.067890
0.103930
0.140471
0.155158
0.159630
0.124872
0.087855
0.097416
0.062504
-0.006303
-0.045064
-0.100050
-0.136864
-0.131390
-0.139232
-0.122061
-0.108146
-0.064339
-0.037537
0.027283
0.087067
0.119655
0.142051
0.150869
0.142632
0.146279
0.121879
0.091955
0.016703
-0.046641
-0.098619
-0.139704
-0.153860
-0.159084
-0.175585
-0.168945
-0.131696
-0.098148
-0.060412
-0.006210
0.047254
0.059091
0.104520
0.129611
0.139094
0.128579
0.099535
0.071546
0.030064
-0.035939
-0.101721
-0.139632
-0.160943
-0.178864
-0.214858
-0.221676
-0.187948
-0.151355
-0.103725
-0.049050
0.023816
0.064094
0.092169
0.106172
0.124165
0.112720
0.079578
0.037480
-0.005425
-0.059565
-0.117470
-0.163881
-0.209786
-0.237257
-0.235734
-0.225587
-0.190627
-0.165451
-0.113925
-0.072119
-0.034100
0.013505
0.063528
0.086836
0.070303
0.056847
0.053516
0.025181
-0.026618
-0.081349
-0.125102
-0.176509
-0.215721
-0.234929
-0.251314
-0.242273
-0.217513
-0.192308
-0.150389
-0.098760
-0.045610
-0.003176
0.030235
0.054389
0.065804
0.069412
0.052546
0.015932
-0.016556
-0.064198
-0.118733
-0.163001
-0.195570
-0.226356
-0.235210
-0.217267
-0.196146
-0.175492
-0.131849
-0.102536
-0.049183
-0.011358
0.022276
0.062995
0.072381
0.067883
0.049037
0.028914
-0.025229
-0.070787
-0.115557
-0.177183
-0.213089
-0.232413
-0.220664
-0.211239
-0.199646
-0.183624
-0.124196
-0.091861
-0.042130
-0.000897
0.031382
0.054317
0.069505
0.077024
0.047716
0.015048
-0.028548
-0.064128
-0.114808
-0.146004
-0.191417
-0.205762
-0.212721
-0.211792
-0.179215
-0.150048
-0.107351
-0.064352
-0.007349
0.021110
0.049986
0.065411
0.062685
0.053361
0.029505
0.002445
-0.036748
-0.083779
-0.138719
-0.167293
-0.187210
-0.206037
-0.213914
-0.200323
-0.197436
-0.165741
-0.108305
-0.056309
-0.013595
0.020030
0.062865
0.071125
0.085417
0.067844
0.031509
0.004579
-0.044878
-0.098296
-0.154199
-0.186485
-0.206187
-0.223962
-0.220954
-0.232578
-0.193764
-0.156686
-0.114892
-0.052713
0.001249
0.031865
0.058131
0.082635
0.075020
0.046282
0.030515
0.011843
-0.034825
-0.096356
-0.151155
-0.202318
-0.224352
-0.236809
-0.246263
-0.250130
-0.198780
-0.153629
-0.112184
-0.072484
-0.024135
0.015597
0.023010
0.055697
0.080531
0.067759
0.048811
0.025224
-0.002032
-0.082097
-0.140388
-0.184799
-0.220792
-0.238433
-0.232047
-0.227082
-0.212825
-0.182791
-0.137450
-0.062371
0.001589
0.049337
0.080307
0.110271
0.120764
0.123181
0.097426
0.056820
0.002681
-0.051214
-0.096763
-0.142396
-0.185981
-0.220426
-0.229625
-0.223215
-0.214365
-0.181621
-0.128935
-0.077617
-0.019692
0.025904
0.077000
0.091904
0.103693
0.101586
0.093213
0.063337
0.031214
-0.020211
-0.086938
-0.122226
-0.158373
-0.181098
-0.186361
-0.180469
-0.174778
-0.145305
-0.108582
-0.065857
-0.017794
0.030143
0.064726
0.096900
0.109242
0.107178
0.097536
0.060221
0.013300
-0.046795
-0.096520
-0.145960
-0.177005
-0.171163
-0.186933
-0.211357
-0.205436
-0.174275
-0.133632
-0.090392
-0.046697
-0.003229
0.045701
0.047764
0.062454
0.061326
0.037623
0.007706
-0.029635
-0.072549
-0.145644
-0.198249
-0.225315
-0.252417
-0.265661
-0.255130
-0.244725
-0.222380
-0.178533
-0.120573
-0.055894
-0.021798
0.021438
0.037307
0.038380
0.029734
0.009932
-0.011501
-0.049993
-0.103451
-0.149629
-0.188670
-0.221840
-0.251599
-0.262112
-0.238980
-0.227990
-0.204414
-0.154552
-0.112762
-0.072488
-0.048547
-0.018111
0.016200
0.011446
0.002182
-0.020707
-0.045578
-0.054656
-0.101392
-0.152815
-0.189376
-0.230161
-0.236890
-0.253119
-0.265926
-0.251957
-0.210098
-0.169504
-0.122947
-0.066137
-0.035371
0.005435
0.021037
0.016982
-0.007347
-0.027205
-0.038906
-0.082371
-0.131630
-0.165606
-0.197016
-0.239211
-0.259427
-0.257688
-0.247803
-0.224054
-0.194724
-0.169687
-0.130692
-0.080638
-0.044669
0.009999
0.030372
0.020307
-0.008273
-0.031797
-0.051352
-0.092310
-0.130855
-0.165250
-0.202431
-0.221873
-0.230986
-0.210443
-0.175565
-0.133057
-0.076050
-0.016946
0.040620
0.079747
0.115122
0.177761
0.219992
0.241745
0.261909
0.282675
0.275678
0.263876
0.256834
0.246994
0.250165
0.255266
0.259294
0.286580
0.345544
0.425200
0.502965
0.583956
0.671220
0.739822
0.800995
0.839387
0.859412
0.877083
0.852680
0.794812
0.736766
0.662685
0.588620
0.485149
0.366008
0.256321
0.191029
0.146400
0.092961
0.068221
0.056092
0.086625
0.121379
0.151328
0.185270
0.221617
0.223634
0.221517
0.194561
0.148899
0.117918
0.068938
-0.002618
-0.069899
-0.113446
-0.150703
-0.174799
-0.176130
-0.164120
-0.149506
-0.119282
-0.070935
-0.033788
-0.002512
0.048733
0.080975
0.096149
0.104783
0.093437
0.083176
0.046818
-0.000082
-0.060799
-0.118063
-0.170135
-0.212078
-0.233900
-0.244347
-0.229766
-0.210244
-0.175432
-0.128494
-0.050571
0.000248
0.030336
0.074456
0.090956
0.082059
0.070101
0.052851
0.030159
-0.027613
-0.086073
-0.120368
-0.166760
-0.191972
-0.220703
-0.232746
-0.223929
-0.220019
-0.178685
-0.134010
-0.081821
-0.034086
0.015812
0.052556
0.079609
0.082186
0.075224
0.057181
0.019850
-0.011938
-0.056803
-0.101534
-0.156450
-0.195300
-0.226832
-0.227572
-0.215638
-0.202553
-0.184669
-0.150472
-0.094278
-0.060964
-0.031360
0.016018
0.049707
0.054212
0.040802
0.029381
0.006844
-0.031430
-0.067115
-0.097712
-0.123968
-0.151509
-0.170920
-0.183375
-0.172866
-0.151610
-0.122135
-0.075536
-0.012231
0.053036
0.090963
0.114319
0.139258
0.154092
0.133884
0.110727
0.095246
0.067089
0.027285
-0.022349
-0.087963
-0.134124
-0.128055
-0.105748
-0.122369
-0.091155
-0.081014
-0.040185
0.003724
0.048165
0.100333
0.140661
0.156143
0.154744
0.146396
0.130623
0.096471
0.050798
0.015751
-0.033976
-0.077708
-0.110684
-0.118113
-0.121226
-0.109149
-0.084298
-0.063170
-0.014972
0.026994
0.068840
0.122307
0.156163
0.161466
0.166894
0.160348
0.141143
0.111075
0.067935
0.019366
-0.025235
-0.062544
-0.091094
-0.111775
-0.120688
-0.104875
-0.083842
-0.052652
-0.017956
0.037010
0.075520
0.122976
0.156841
0.166802
0.157462
0.138163
0.117048
0.073209
0.042338
0.006271
-0.044448
-0.101965
-0.129387
-0.134959
-0.130218
-0.110064
-0.089205
-0.050958
-0.017679
0.019696
0.077928
0.109628
0.138834
0.144942
0.145435
0.119840
0.103823
0.075412
0.024656
-0.031143
-0.079359
-0.120027
-0.146625
-0.151483
-0.170107
-0.156697
-0.116811
-0.075557
-0.044406
-0.007301
0.028604
0.081524
0.119076
0.132047
0.143487
0.123896
0.094190
0.055495
0.007750
-0.044931
-0.097671
-0.165666
-0.207967
-0.211660
-0.208651
-0.185373
-0.159585
-0.123523
-0.078958
-0.001186
0.057843
0.093414
0.117946
0.127351
0.117296
0.102342
0.086616
0.045016
-0.007869
-0.047809
-0.110033
-0.154515
-0.195732
-0.219083
-0.213382
-0.212095
-0.174891
-0.132920
-0.090303
-0.036503
0.010306
0.049324
0.083527
0.092851
0.112890
0.105024
0.087616
0.048180
-0.010942
-0.066301
-0.109530
-0.168820
-0.202014
-0.211403
-0.227327
-0.208272
-0.190929
-0.158623
-0.102340
-0.047388
0.016790
0.056495
0.088464
0.103761
0.104438
0.119125
0.085942
0.045394
0.000267
-0.049003
-0.073806
-0.125612
-0.171159
-0.190185
-0.216377
-0.221735
-0.188619
-0.149176
-0.111895
-0.057517
-0.010656
0.039998
0.080113
0.098797
0.112521
0.114786
0.086441
0.050095
0.007038
-0.046269
-0.093535
-0.133569
-0.170391
-0.193667
-0.209681
-0.189020
-0.170701
-0.163616
-0.103722
-0.033697
0.027076
0.052782
0.068629
0.087336
0.107584
0.103566
0.086703
0.043154
0.006359
-0.045731
-0.076238
-0.106686
-0.141396
-0.185619
-0.193114
-0.189854
-0.171999
-0.145088
-0.111257
-0.055416
-0.024721
0.019256
0.063701
0.101597
0.107905
0.116995
0.102723
0.072989
0.018671
-0.027612
-0.048103
-0.104305
-0.143601
-0.162398
-0.176166
-0.178369
-0.143611
-0.103072
-0.072189
-0.029810
0.017735
0.045599
0.070802
0.089841
0.086885
0.082715
0.060731
0.029491
-0.001676
-0.054155
-0.100231
-0.132053
-0.162485
-0.175656
-0.185575
-0.180671
-0.149134
-0.124751
-0.085825
-0.027778
0.013090
0.048569
0.081136
0.099217
0.112170
0.088858
0.068354
0.034079
0.003820
-0.037735
-0.088053
-0.110348
-0.136012
-0.135191
-0.145969
-0.153240
-0.137641
-0.107263
-0.041335
0.006760
0.046858
0.078662
0.114588
0.125736
0.123157
0.104459
0.084485
0.051328
0.023317
-0.023828
-0.081082
-0.108947
-0.142842
-0.169878
-0.168524
-0.155312
-0.132825
-0.088942
-0.044649
0.013234
0.048912
0.091496
0.133336
0.160355
0.166254
0.166444
0.134274
0.093983
0.052178
-0.007986
-0.058540
-0.099389
-0.125553
-0.148206
-0.162301
-0.148763
-0.120829
-0.081602
-0.045071
0.015994
0.043785
0.085988
0.117406
0.150370
0.145888
0.129127
0.098927
0.054434
0.019469
-0.056348
-0.099783
-0.134748
-0.157634
-0.188075
-0.186363
-0.170185
-0.157140
-0.118415
-0.074046
-0.025381
0.003523
0.046531
0.089398
0.116734
0.139436
0.119172
0.087262
0.044607
-0.003329
-0.065395
-0.118040
-0.153256
-0.195998
-0.221082
-0.229001
-0.235564
-0.212713
-0.167468
-0.117188
-0.056025
-0.004948
0.037289
0.069980
0.085780
0.083636
0.083724
0.064048
0.018478
-0.021635
-0.080967
-0.109087
-0.145617
-0.189944
-0.233109
-0.244978
-0.229986
-0.200408
-0.171552
-0.124126
-0.071923
-0.030300
0.004507
0.041534
0.085491
0.087851
0.092272
0.070000
0.027449
-0.017183
-0.069647
-0.117988
-0.157819
-0.207799
-0.243957
-0.241071
-0.234495
-0.210176
-0.192386
-0.164631
-0.097478
-0.035275
0.011423
0.062641
0.081791
0.098260
0.079983
0.058483
0.018756
-0.029977
-0.060412
-0.116595
-0.165490
-0.202034
-0.231178
-0.221470
-0.212306
-0.201718
-0.178745
-0.139231
-0.087862
-0.042590
-0.006661
0.024694
0.057741
0.056938
0.064589
0.045420
0.031464
0.006048
-0.032619
-0.068096
-0.099330
-0.105482
-0.108229
-0.103655
-0.105937
-0.071193
-0.027583
0.044217
0.125942
0.200338
0.266504
0.343688
0.398618
0.436928
0.458833
0.493576
0.492835
0.480707
0.461353
0.476290
0.476628
0.473686
0.492301
0.539602
0.586573
0.630448
0.659116
0.710235
0.767899
0.801082
0.821630
0.836184
0.826967
0.801234
0.750149
0.670175
0.557881
0.437449
0.339184
0.237250
0.154406
0.084678
0.006138
-0.018211
-0.018081
0.025135
0.052142
0.085368
0.123050
0.159986
0.183469
0.201655
0.218890
0.218194
0.206049
0.176255
0.120083
0.063749
0.009211
-0.037386
-0.077619
-0.112954
-0.145641
-0.155687
-0.145747
-0.124474
-0.091580
-0.049784
0.009603
0.058488
0.091947
0.134176
0.142943
0.140481
0.136575
0.113547
0.072312
0.025989
-0.055641
-0.103999
-0.136894
-0.156826
-0.192765
-0.194883
-0.188552
-0.168301
-0.138066
-0.094877
-0.038841
0.021615
0.070522
0.117595
0.131675
0.121279
0.122128
0.114499
0.068051
0.020176
-0.032561
-0.079229
-0.117133
-0.163349
-0.182577
-0.190860
-0.191526
-0.167145
-0.132878
-0.074806
-0.024450
0.021506
0.064141
0.101993
0.133947
0.131998
0.119849
0.117280
0.084599
0.043726
-0.018075
-0.063828
-0.103454
-0.140241
-0.155870
-0.165064
-0.168796
-0.154434
-0.119494
-0.076387
-0.015944
0.037153
0.080800
0.111896
0.136476
0.162600
0.164132
0.134725
0.107849
0.056919
-0.003313
-0.025820
-0.030903
-0.097731
-0.135971
-0.127558
-0.124749
-0.101771
-0.080108
-0.030965
0.019106
0.069389
0.102837
0.148969
0.178358
0.153821
0.147040
0.139008
0.127293
0.067065
0.038335
-0.006437
-0.052243
-0.085029
-0.101799
-0.104925
-0.098404
-0.076453
-0.045463
-0.006625
0.052330
0.096459
0.136168
0.166698
0.195001
0.193145
0.179060
0.169411
0.130411
0.070464
0.016560
0.009158
-0.008860
-0.037084
-0.068858
-0.080784
-0.087123
-0.058478
-0.024301
0.035783
0.089812
0.131002
0.168639
0.196154
0.216084
0.226927
0.201334
0.167913
0.122129
0.095150
0.065496
-0.001913
-0.040097
-0.072219
-0.093901
-0.090645
-0.077405
-0.062960
-0.030129
0.021794
0.069917
0.107246
0.147467
0.180924
0.205184
0.203094
0.197647
0.165212
0.134571
0.098615
0.041114
-0.005504
-0.050629
-0.088341
-0.115462
-0.126453
-0.115309
-0.090114
-0.055478
-0.000930
0.055254
0.102570
0.154536
0.184004
0.200848
0.214756
0.195982
0.168243
0.126635
0.076439
0.028468
-0.027903
-0.073395
-0.114323
-0.134277
-0.141662
-0.129788
-0.115943
-0.070554
-0.036071
0.025899
0.067225
0.106958
0.150552
0.169916
0.162376
0.166984
0.132735
0.098611
0.052099
-0.008067
-0.052939
-0.097197
-0.137236
-0.147639
-0.159868
-0.158598
-0.142725
-0.105099
-0.070640
-0.018648
0.042157
0.076487
0.096400
0.129141
0.148428
0.157622
0.123805
0.096514
0.053061
0.009446
-0.035299
-0.084870
-0.112860
-0.165405
-0.170144
-0.156304
-0.149116
-0.132280
-0.089925
-0.026853
0.011701
0.053869
0.088132
0.101658
0.103346
0.115536
0.096669
0.075189
0.055887
0.022627
-0.027717
-0.078797
-0.118992
-0.147992
-0.171183
-0.158983
-0.133899
-0.104258
-0.053217
-0.020768
0.033956
0.069824
0.095131
0.116170
0.132512
0.132322
0.123260
0.079694
0.049775
0.006625
-0.041889
-0.083047
-0.120677
-0.133180
-0.135355
-0.133501
-0.106633
-0.084968
-0.061696
-0.006898
0.021179
0.084566
0.124768
0.136798
0.139205
0.144871
0.099113
0.074273
0.040310
-0.002889
-0.049078
-0.092242
-0.126858
-0.135491
-0.149200
-0.139182
-0.109380
-0.069555
-0.035176
0.002409
0.039516
0.082733
0.111063
0.121693
0.124354
0.121006
0.110925
0.074200
0.027629
-0.021469
-0.050888
-0.087309
-0.125895
-0.142540
-0.138735
-0.131930
-0.102088
-0.075246
-0.033920
0.010839
0.054603
0.094439
0.137453
0.137420
0.132203
0.123057
0.113554
0.066189
0.029952
-0.021284
-0.058423
-0.100076
-0.139272
-0.166360
-0.155275
-0.141135
-0.121052
-0.082828
-0.037350
0.009206
0.074751
0.105084
0.134394
0.158318
0.147784
0.129084
0.113807
0.066839
0.023932
-0.028203
-0.059950
-0.116278
-0.146393
-0.160085
-0.169450
-0.157373
-0.136944
-0.101212
-0.046543
0.009050
0.058918
0.095729
0.140407
0.150740
0.145495
0.134382
0.118421
0.099334
0.050613
-0.016737
-0.074275
-0.115843
-0.121590
-0.140660
-0.157092
-0.136332
-0.113000
-0.070353
-0.025398
-0.004621
0.057199
0.098012
0.118345
0.146455
0.182943
0.167861
0.133335
0.100642
0.055418
0.019276
-0.018639
-0.065016
-0.109043
-0.134100
-0.144976
-0.152653
-0.132087
-0.094174
-0.052183
-0.001345
0.042373
0.094527
0.136303
0.159110
0.184393
0.187815
0.178694
0.148988
0.107773
0.063968
-0.009834
-0.081391
-0.098301
-0.096940
-0.098649
-0.099382
-0.076758
-0.059268
-0.015931
0.025242
0.064941
0.111438
0.148294
0.169052
0.176523
0.173206
0.155556
0.124319
0.068811
0.025414
-0.029109
-0.067668
-0.095491
-0.128876
-0.162474
-0.154226
-0.133365
-0.102883
-0.065148
-0.027831
0.024399
0.076994
0.100190
0.124443
0.138370
0.124748
0.117098
0.079686
0.036065
-0.016641
-0.059493
-0.104125
-0.139103
-0.165637
-0.175623
-0.165013
-0.148316
-0.118886
-0.095321
-0.049216
-0.014513
0.037286
0.065559
0.079093
0.093311
0.083476
0.077205
0.044930
-0.001451
-0.045695
-0.107237
-0.145180
-0.146988
-0.169678
-0.189630
-0.185951
-0.149418
-0.109528
-0.090985
-0.056516
-0.004755
0.046224
0.076337
0.079555
0.080263
0.069070
0.054496
0.043101
-0.016305
-0.049008
-0.087516
-0.131007
-0.177388
-0.177552
-0.183958
-0.188399
-0.160365
-0.116563
-0.082773
-0.042892
-0.004620
0.033284
0.064610
0.086609
0.101368
0.082883
0.047740
0.019428
-0.009397
-0.060567
-0.103797
-0.156589
-0.178119
-0.195771
-0.193784
-0.177050
-0.148320
-0.123904
-0.079588
-0.041854
0.001607
0.034752
0.066426
0.097405
0.107855
0.097632
0.068466
0.024056
-0.031012
-0.083469
-0.114100
-0.136041
-0.163271
-0.159221
-0.148045
-0.123550
-0.083977
-0.032020
0.026148
0.086171
0.160819
0.220330
0.276218
0.304212
0.346291
0.371859
0.374830
0.362314
0.327027
0.342467
0.345033
0.333848
0.335700
0.345541
0.395365
0.453716
0.525679
0.597073
0.657365
0.749302
0.839266
0.883065
0.894103
0.921286
0.917912
0.895345
0.861299
0.814402
0.746764
0.630600
0.497051
0.383190
0.303430
0.228537
0.175180
0.154009
0.096715
0.100037
0.120735
0.151755
0.189684
0.233522
0.277811
0.288448
0.276533
0.271632
0.242234
0.193307
0.137550
0.082232
0.024761
-0.026406
-0.068344
-0.122349
-0.135609
-0.126704
-0.094885
-0.071265
-0.019644
0.022062
0.060350
0.108968
0.135942
0.155819
0.145932
0.152305
0.143225
0.101859
0.057746
0.003564
-0.035991
-0.082124
-0.106061
-0.134757
-0.164205
-0.153665
-0.131691
-0.102046
-0.061713
-0.019917
0.020175
0.066032
0.097723
0.126002
0.149489
0.128854
0.112237
0.103107
0.068919
0.019275
-0.021313
-0.077818
-0.120546
-0.132955
-0.136678
-0.140410
-0.123649
-0.094947
-0.058752
-0.021653
0.023225
0.076070
0.114429
0.148108
0.136773
0.151532
0.137205
0.094796
0.055382
0.001483
-0.060636
-0.081612
-0.102554
-0.115612
-0.117288
-0.105749
-0.092623
-0.062318
-0.021363
0.007737
0.033510
0.084761
0.114480
0.143738
0.175049
0.174537
0.127874
0.088067
0.054547
0.007336
-0.045843
-0.059329
-0.087525
-0.116763
-0.096125
-0.076213
-0.059699
-0.037060
0.004370
0.054369
0.100239
0.127203
0.161831
0.182456
0.190893
0.179210
0.182571
0.114159
0.083295
0.028119
-0.023885
-0.056764
-0.070191
-0.085616
-0.071530
-0.055983
-0.036199
-0.004430
0.039543
0.092020
0.133502
0.172609
0.202777
0.225523
0.224520
0.235706
0.200314
0.161562
0.114982
0.062355
0.018149
-0.027436
-0.048497
-0.061017
-0.065558
-0.044655
-0.021052
0.023924
0.068066
0.108040
0.158729
0.191889
0.213358
0.241216
0.247178
0.224995
0.210589
0.180477
0.129221
0.079471
0.024197
-0.021046
-0.062358
-0.079187
-0.083036
-0.049554
-0.013995
0.026647
0.053500
0.099390
0.152644
0.190249
0.193685
0.246044
0.254265
0.236020
0.199917
0.172613
0.116560
0.069112
0.028854
-0.032104
-0.062429
-0.078059
-0.088754
-0.081500
-0.063702
-0.037930
0.014939
0.078001
0.135733
0.191320
0.219068
0.216893
0.224037
0.213775
0.198431
0.178316
0.125258
0.077068
0.019997
-0.028614
-0.075434
-0.101623
-0.110469
-0.100665
-0.074149
-0.043705
-0.018405
0.040399
0.102509
0.138845
0.158699
0.201466
0.213385
0.203799
0.173307
0.136111
0.087434
0.053412
0.011979
-0.043679
-0.079105
-0.115949
-0.120970
-0.133242
-0.100280
-0.057962
-0.017877
0.014156
0.059069
0.097110
0.130723
0.169437
0.177464
0.163459
0.152979
0.123265
0.082903
0.034701
-0.020887
-0.078580
-0.104913
-0.129507
-0.132023
-0.123846
-0.106171
-0.084741
-0.041767
0.003679
0.045458
0.096483
0.125420
0.149412
0.147388
0.132808
0.125780
0.097090
0.063825
0.010794
-0.013154
-0.063248
-0.094538
-0.120917
-0.118916
-0.123323
-0.122483
-0.075450
-0.028253
-0.002982
0.055874
0.095277
0.129621
0.139199
0.162877
0.148887
0.141402
0.121910
0.064797
0.007325
-0.025196
-0.059441
-0.110635
-0.136160
-0.134592
-0.121527
-0.112058
-0.069374
-0.014692
0.027605
0.060059
0.115636
0.137178
0.164009
0.167344
0.162219
0.118951
0.088420
0.050314
0.038078
-0.026638
-0.065806
-0.113228
-0.123818
-0.124249
-0.112521
-0.090532
-0.047639
-0.007236
0.036717
0.083974
0.150792
0.182894
0.184419
0.186247
0.167019
0.137549
0.104215
0.061324
0.008569
-0.044214
-0.088263
-0.114124
-0.119977
-0.128586
-0.123799
-0.097364
-0.064019
-0.030745
0.027625
0.083286
0.134150
0.163414
0.180478
0.174241
0.145216
0.112702
0.120133
0.070672
0.014560
-0.037462
-0.086443
-0.105986
-0.141345
-0.145992
-0.141761
-0.097938
-0.051976
0.005354
0.030245
0.076265
0.120188
0.160257
0.185452
0.192719
0.181635
0.145805
0.096157
0.039431
-0.001831
-0.031050
-0.085033
-0.118329
-0.146355
-0.154649
-0.142341
-0.107394
-0.072700
-0.040653
0.005351
0.059106
0.110434
0.144693
0.166366
0.175131
0.179807
0.143283
0.097300
0.065101
0.012738
-0.033125
-0.084768
-0.129911
-0.144085
-0.150586
-0.154632
-0.134200
-0.112625
-0.056025
0.004514
0.050870
0.101587
0.125327
0.149764
0.167001
0.159006
0.138216
0.101638
0.056234
0.018070
-0.041329
-0.075481
-0.101407
-0.138747
-0.154898
-0.142877
-0.125789
-0.080170
-0.026317
0.017050
0.057879
0.103283
0.140335
0.155785
0.164363
0.159931
0.153900
0.126570
0.075216
0.040093
-0.012678
-0.052100
-0.076293
-0.117224
-0.127933
-0.096155
-0.059239
-0.033252
-0.002565
0.056918
0.087791
0.128799
0.152230
0.183473
0.186777
0.170473
0.162518
0.137051
0.092572
0.033033
-0.004804
-0.040800
-0.063697
-0.102721
-0.109133
-0.092889
-0.089833
-0.062018
0.002397
0.046049
0.104005
0.144778
0.168613
0.177226
0.207707
0.197732
0.164875
0.129439
0.082646
0.046560
0.001277
-0.012473
-0.042407
-0.070615
-0.083107
-0.098041
-0.076009
-0.052263
0.007481
0.060994
0.087805
0.118151
0.146817
0.171997
0.165565
0.160333
0.144575
0.099214
0.052132
0.012911
-0.028784
-0.077299
-0.116862
-0.121200
-0.127056
-0.123213
-0.106903
-0.069231
-0.029841
0.017058
0.049759
0.094537
0.125918
0.149596
0.149243
0.131402
0.113958
0.073720
0.032883
-0.020148
-0.065497
-0.107187
-0.147847
-0.180525
-0.178053
-0.156361
-0.121854
-0.082740
-0.052809
-0.009534
0.037956
0.083554
0.117666
0.124677
0.125096
0.109764
0.094276
0.064397
0.004182
-0.028088
-0.057056
-0.110631
-0.152818
-0.175065
-0.173122
-0.174299
-0.143225
-0.102995
-0.050209
-0.014109
0.041626
0.095956
0.122955
0.131440
0.123781
0.116930
0.099122
0.059115
0.013509
-0.035258
-0.088891
-0.133177
-0.159582
-0.180170
-0.188316
-0.192653
-0.155095
-0.105930
-0.069070
-0.021784
0.033093
0.077780
0.110315
0.124244
0.117177
0.135513
0.112153
0.071474
0.020282
-0.040885
-0.082485
-0.143488
-0.170058
-0.187533
-0.201015
-0.194673
-0.168157
-0.133000
-0.086529
-0.030919
0.025303
0.070701
0.088599
0.160231
0.167579
0.184861
0.201755
0.167881
0.123702
0.118960
0.079238
0.017457
-0.008471
0.001335
0.003632
0.027772
0.079528
0.137048
0.211408
0.303844
0.388754
0.450585
0.539422
0.575395
0.609179
0.643885
0.664311
0.683501
0.676794
0.670987
0.661551
0.648119
0.636152
0.641006
0.626896
0.630881
0.654273
0.646238
0.680525
0.698132
0.724380
0.734246
0.701464
0.662494
0.603797
0.547625
0.491938
0.411063
0.315736
0.241749
0.176643
0.119846
0.064451
0.060417
0.037752
0.024363
0.017324
0.035568
0.074303
0.114322
0.135324
0.164365
0.193421
0.211154
0.226681
0.218249
0.188853
0.142725
0.095956
0.054447
-0.009131
-0.053829
-0.078026
-0.100654
-0.105391
-0.092752
-0.083930
-0.052639
-0.006897
0.010401
0.057283
0.099819
0.134947
0.146061
0.153683
0.140821
0.123726
0.089295
0.041504
0.008838
-0.031541
-0.062582
-0.103181
-0.117461
-0.133688
-0.122338
-0.102368
-0.068735
-0.005702
0.033080
0.072037
0.104366
0.127367
0.138269
0.147158
0.143660
0.114063
0.089044
0.062492
0.030587
-0.029417
-0.094629
-0.118724
-0.131200
-0.124179
-0.109251
-0.087998
-0.064938
-0.018227
0.027340
0.068405
0.114501
0.146417
0.173204
0.169818
0.161465
0.142111
0.109806
0.048295
0.008674
-0.035232
-0.060303
-0.088493
-0.109659
-0.120119
-0.111338
-0.066869
-0.014876
0.002131
0.031989
0.091170
0.134389
0.153773
0.172659
0.186609
0.183597
0.156923
0.111323
0.071656
0.024888
-0.015150
-0.060795
-0.095232
-0.113213
-0.116053
-0.099248
-0.064534
-0.001204
0.041068
0.081236
0.127043
0.171414
0.201914
0.221894
0.221800
0.224257
0.203080
0.171861
0.108638
0.055348
0.006028
-0.047798
-0.079596
-0.074824
-0.077369
-0.070116
-0.040096
-0.012182
0.046492
0.099506
0.144023
0.198101
0.240079
0.254943
0.254812
0.238626
0.209826
0.184540
0.148977
0.112040
0.055669
0.004623
-0.025938
-0.043733
-0.068907
-0.061726
-0.034223
-0.012629
0.055172
0.091995
0.135181
0.190531
0.248330
0.267881
0.252809
0.239754
0.243765
0.207783
0.144475
0.087150
0.028129
0.009155
-0.024391
-0.061693
-0.079313
-0.066218
-0.053747
-0.021554
0.023321
0.072980
0.125121
0.185746
0.223928
0.244339
0.244703
0.242813
0.225653
0.185666
0.140925
0.089200
0.049643
-0.007956
-0.042280
-0.068477
-0.073245
-0.066476
-0.047231
-0.009445
0.018893
0.052431
0.100920
0.151349
0.170872
0.203052
0.221188
0.210755
0.188569
0.149610
0.111323
0.061354
0.026688
-0.021764
-0.061872
-0.073063
-0.078049
-0.095612
-0.090141
-0.060917
-0.010984
0.013849
0.095025
0.124227
0.145606
0.169520
0.177275
0.163783
0.152399
0.127246
0.091751
0.044081
-0.006735
-0.040620
-0.076237
-0.096010
-0.104886
-0.115114
-0.093452
-0.046874
-0.012699
0.036809
0.086581
0.123685
0.150084
0.163007
0.162120
0.148680
0.124727
0.089486
0.045039
-0.016237
-0.051789
-0.089812
-0.121171
-0.113791
-0.119460
-0.100889
-0.094708
-0.057994
-0.010586
0.033480
0.072326
0.102302
0.134860
0.156103
0.153312
0.133424
0.108131
0.086265
0.025133
-0.023101
-0.067718
-0.090058
-0.118496
-0.148520
-0.150004
-0.127390
-0.087630
-0.050689
-0.017135
0.028808
0.088476
0.120846
0.164216
0.189020
0.168899
0.169658
0.135822
0.079497
0.028860
-0.022145
-0.049354
-0.083790
-0.118032
-0.145209
-0.142323
-0.139428
-0.092159
-0.041086
-0.008684
0.043141
0.094437
0.138467
0.174492
0.203288
0.198218
0.173358
0.147323
0.107123
0.047824
0.002037
-0.049966
-0.097848
-0.118042
-0.118847
-0.126979
-0.126845
-0.108465
-0.064605
-0.006938
0.029343
0.079203
0.110958
0.166269
0.184088
0.187186
0.177727
0.157938
0.118175
0.067944
0.021959
-0.032657
-0.074554
-0.111458
-0.113788
-0.142253
-0.143593
-0.119505
-0.072856
-0.024891
0.021619
0.070074
0.103454
0.155081
0.167649
0.191298
0.161840
0.146280
0.103354
0.056337
-0.002799
-0.047508
-0.083912
-0.118323
-0.139180
-0.152780
-0.132994
-0.130264
-0.085793
-0.037988
0.006554
0.044740
0.112574
0.147237
0.172268
0.163911
0.158110
0.150105
0.112373
0.057731
0.013569
-0.018800
-0.064533
-0.115174
-0.152554
-0.154560
-0.144924
-0.126006
-0.089136
-0.066835
-0.001806
0.047239
0.075726
0.123936
0.150360
0.136424
0.116484
0.120737
0.113727
0.079788
0.017902
-0.030602
-0.062992
-0.100161
-0.136444
-0.137555
-0.136421
-0.113687
-0.100114
-0.056633
-0.014013
0.032077
0.081295
0.123923
0.135098
0.134977
0.134741
0.130010
0.094308
0.041929
0.003958
-0.039664
-0.080340
-0.108718
-0.135332
-0.142188
-0.135202
-0.108776
-0.089058
-0.042976
0.004923
0.050167
0.086814
0.113523
0.124204
0.129052
0.135333
0.118858
0.085710
0.042361
0.004986
-0.029276
-0.072460
-0.097862
-0.111210
-0.117206
-0.110443
-0.076994
-0.038680
-0.003710
0.034744
0.081022
0.122190
0.139544
0.157695
0.165327
0.162581
0.137090
0.099069
0.048880
0.010053
-0.025223
-0.080673
-0.108256
-0.114866
-0.129099
-0.104373
-0.080559
-0.033470
0.010070
0.054618
0.091884
0.139789
0.157430
0.178026
0.192884
0.175069
0.151181
0.143922
0.096689
0.040230
-0.011792
-0.072184
-0.087045
-0.079146
-0.084926
-0.074041
-0.053722
-0.034415
0.004414
0.042171
0.108977
0.140091
0.156840
0.173856
0.176506
0.172770
0.140169
0.094325
0.044417
0.011269
-0.031442
-0.080798
-0.119160
-0.131312
-0.140179
-0.123828
-0.092254
-0.061358
-0.017377
0.030387
0.080141
0.123264
0.144989
0.159420
0.145864
0.120979
0.096619
0.066828
0.001271
-0.029791
-0.087207
-0.136294
-0.165570
-0.153429
-0.157320
-0.157622
-0.135991
-0.098776
-0.063128
-0.029435
0.014728
0.078905
0.116541
0.125820
0.130783
0.123631
0.088786
0.060438
0.004989
-0.050981
-0.098620
-0.141171
-0.180759
-0.200038
-0.216869
-0.196911
-0.161240
-0.124505
-0.071758
-0.011928
0.040949
0.081814
0.120344
0.141449
0.134843
0.126470
0.094790
0.055162
0.001768
-0.039689
-0.097182
-0.154877
-0.176353
-0.179393
-0.195388
-0.202648
-0.188964
-0.138157
-0.084110
-0.020062
0.037493
0.084598
0.104620
0.109426
0.133211
0.138188
0.104761
0.064817
0.013703
-0.028979
-0.069638
-0.103034
-0.138977
-0.166078
-0.206241
-0.232732
-0.191871
-0.155196
-0.116111
-0.049329
-0.006533
0.042267
0.084973
0.105445
0.123501
0.128544
0.122611
0.098500
0.057613
0.013099
-0.025656
-0.071499
-0.080076
-0.091313
-0.115193
-0.080399
-0.048692
0.014875
0.069367
0.126843
0.201745
0.276169
0.316071
0.367475
0.416068
0.440084
0.462782
0.463405
0.465635
0.453123
0.435567
0.402252
0.419759
0.438622
0.476901
0.497760
0.565453
0.624772
0.678880
0.736875
0.775477
0.820253
0.847420
0.869116
0.876535
0.874333
0.817244
0.735878
0.618486
0.528850
0.423400
0.323317
0.246698
0.181826
0.121923
0.075204
0.071940
0.095447
0.126945
0.171250
0.200842
0.211038
0.244087
0.261588
0.254562
0.236372
0.214319
0.177250
0.133898
0.091929
0.033769
-0.009653
-0.044814
-0.082586
-0.093382
-0.095405
-0.074427
-0.040820
-0.007993
0.032682
0.064393
0.096760
0.121676
0.135973
0.153956
0.165004
0.127945
0.110752
0.065286
0.004828
-0.038885
-0.065013
-0.107295
-0.121489
-0.119599
-0.117853
-0.096744
-0.059559
-0.031851
0.015513
0.055843
0.081257
0.115129
0.127579
0.140642
0.136335
0.120539
0.081551
0.046138
-0.017226
-0.052187
-0.094879
-0.109939
-0.118137
-0.126210
-0.120647
-0.090800
-0.053170
-0.024525
0.010089
0.059366
0.092920
0.134809
0.149946
0.161041
0.148855
0.123398
0.097698
0.048465
-0.008129
-0.048480
-0.088923
-0.118922
-0.127610
-0.118776
-0.119457
-0.094827
-0.045650
0.000548
0.037557
0.071941
0.124473
0.173170
0.206187
0.210237
0.197956
0.140246
0.121018
0.067881
0.031114
-0.045155
-0.094345
-0.099657
-0.099341
-0.087619
-0.060337
-0.058956
-0.024589
0.037484
0.085324
0.132299
0.166917
0.181748
0.195827
0.208077
0.203114
0.176013
0.124704
0.082721
0.044646
0.000432
-0.032703
-0.074514
-0.076043
-0.070917
-0.037985
-0.048393
-0.014155
0.017635
0.066372
0.123670
0.164394
0.225814
0.253272
0.264104
0.256475
0.226308
0.177772
0.120050
0.073570
0.026435
-0.004494
-0.034110
-0.051698
-0.061104
-0.046048
-0.001957
0.043413
0.079262
0.116066
0.165487
0.199740
0.248335
0.263838
0.268501
0.264338
0.249474
0.206803
0.165096
0.110730
0.055575
0.022746
-0.014808
-0.045750
-0.066668
-0.056077
-0.032540
0.011261
0.062932
0.106214
0.144319
0.181098
0.220363
0.245760
0.263963
0.264000
0.232956
0.193178
0.139728
0.099663
0.037723
0.007356
-0.026899
-0.048094
-0.057156
-0.061420
-0.046288
-0.010896
0.034327
0.090832
0.141486
0.162870
0.192055
0.211502
0.208878
0.224497
0.219900
0.170599
0.133221
0.089734
0.035796
-0.007071
-0.066123
-0.091261
-0.076905
-0.073251
-0.051522
-0.012744
0.018293
0.057187
0.104025
0.134476
0.152828
0.199281
0.229563
0.189612
0.167560
0.137716
0.099328
0.045219
0.003810
-0.034385
-0.082606
-0.116179
-0.110499
-0.086622
-0.068750
-0.035281
-0.002096
0.024792
0.072777
0.105919
0.138127
0.156504
0.159014
0.149818
0.126337
0.095577
0.069632
0.020375
-0.021320
-0.061917
-0.093418
-0.095861
-0.101724
-0.096771
-0.091985
-0.049283
-0.002151
0.033246
0.084088
0.111255
0.134431
0.143331
0.144251
0.132209
0.121352
0.089631
0.047970
0.001879
-0.036985
-0.061478
-0.099376
-0.116644
-0.118092
-0.113207
-0.096658
-0.059545
-0.020238
0.030991
0.068721
0.106931
0.139925
0.144774
0.150969
0.146822
0.132965
0.096923
0.048412
0.000908
-0.050045
-0.096892
-0.114728
-0.133495
-0.116964
-0.114897
-0.095731
-0.055164
0.011020
0.048783
0.080350
0.097367
0.143982
0.158958
0.169480
0.169657
0.152579
0.108385
0.072455
0.032950
-0.026327
-0.068079
-0.105888
-0.131477
-0.117719
-0.123435
-0.103078
-0.065842
-0.029146
0.026965
0.091672
0.107358
0.129704
0.172961
0.172657
0.155056
0.132454
0.080911
0.048262
-0.001384
-0.047788
-0.087234
-0.113360
-0.119160
-0.128289
-0.130630
-0.105036
-0.064218
-0.014583
0.029082
0.089596
0.127812
0.149297
0.169906
0.178948
0.176966
0.147823
0.114248
0.061373
0.021403
-0.041605
-0.066599
-0.111179
-0.139847
-0.161046
-0.141673
-0.131852
-0.097429
-0.057527
0.025649
0.050754
0.101269
0.163244
0.193262
0.182671
0.171290
0.148026
0.108125
0.067632
0.016393
-0.039349
-0.090230
-0.123492
-0.145442
-0.152000
-0.143481
-0.129031
-0.076560
-0.040254
0.006044
0.053677
0.079540
0.117976
0.144756
0.166134
0.150474
0.122467
0.085610
0.044009
0.000014
-0.072492
-0.099337
-0.144358
-0.155632
-0.151989
-0.153754
-0.141362
-0.091082
-0.052441
-0.004427
0.057286
0.099394
0.133864
0.157461
0.149104
0.155935
0.148628
0.101734
0.079022
0.007072
-0.036964
-0.085092
-0.121852
-0.152935
-0.143992
-0.127239
-0.115312
-0.091071
-0.060154
-0.018948
0.014684
0.065498
0.097137
0.114184
0.122239
0.125887
0.103081
0.079597
0.053830
0.007177
-0.060840
-0.078757
-0.094031
-0.129089
-0.142678
-0.133577
-0.122971
-0.084404
-0.042070
0.014262
0.064792
0.104320
0.124833
0.158661
0.137011
0.130710
0.127997
0.105507
0.070799
0.026240
-0.019415
-0.064890
-0.109305
-0.113494
-0.112089
-0.098145
-0.085518
-0.044235
-0.003444
0.044624
0.078522
0.114086
0.142586
0.151547
0.145466
0.138461
0.122963
0.087100
0.050440
0.018289
-0.028505
-0.057691
-0.077087
-0.114865
-0.111690
-0.087327
-0.073087
-0.034392
0.015186
0.064252
0.118776
0.147388
0.164374
0.175918
0.201200
0.188938
0.143970
0.090609
0.059445
0.038349
-0.000102
-0.041607
-0.080204
-0.110445
-0.114439
-0.118703
-0.098929
-0.058171
-0.011975
0.046851
0.118437
0.130393
0.149041
0.191717
0.190531
0.157355
0.127801
0.085179
0.022252
-0.020544
-0.062115
-0.111880
-0.155128
-0.179259
-0.195547
-0.169569
-0.132842
-0.116428
-0.053944
-0.013054
0.034812
0.090001
0.132792
0.137800
0.129839
0.115825
0.100493
0.059539
0.025127
-0.032610
-0.081245
-0.130501
-0.134956
-0.167951
-0.215164
-0.211460
-0.170897
-0.131460
-0.074510
-0.039512
0.001154
0.065261
0.101313
0.109815
0.135618
0.116725
0.087691
0.047794
-0.010901
-0.045697
-0.101882
-0.157131
-0.169958
-0.181791
-0.194630
-0.191561
-0.173512
-0.130777
-0.085993
-0.040733
0.010884
0.046339
0.070634
0.100006
0.110447
0.110619
0.081721
0.047174
0.006578
-0.046263
-0.090330
-0.128365
-0.166405
-0.192649
-0.210901
-0.214633
-0.184846
-0.146652
-0.113018
-0.055574
0.009715
0.060394
0.091072
0.103285
0.097906
0.117660
0.090519
0.064536
0.026809
-0.036467
-0.098571
-0.148049
-0.166868
-0.210597
-0.226580
-0.197138
-0.162132
-0.124300
-0.086100
-0.040454
0.004292
0.056140
0.110395
0.159466
0.175781
0.199095
0.199848
0.180014
0.159912
0.118427
0.090648
0.077476
0.057263
0.044307
0.045392
0.084584
0.119425
0.197162
0.269527
0.343554
0.407308
0.475829
0.532671
0.591397
0.645948
0.678818
0.703215
0.689939
0.655268
0.659827
0.693299
0.681333
0.618090
0.585651
0.568257
0.587312
0.596864
0.615971
0.631643
0.628981
0.584484
0.554650
0.510851
0.468567
0.424172
0.350591
0.296206
0.225742
0.161454
0.087619
0.011338
-0.029142
-0.050849
-0.069255
-0.084207
-0.077324
-0.065201
-0.023567
0.025407
0.054601
0.098469
0.143546
0.171909
0.186246
0.175540
0.152219
0.125164
0.088863
0.030775
-0.018473
-0.066185
-0.087034
-0.120122
-0.150887
-0.144619
-0.127480
-0.097353
-0.054777
-0.015191
0.020922
0.070832
0.099530
0.123432
0.147267
0.161193
0.130792
0.104523
0.060525
0.032822
-0.019083
-0.056477
-0.112136
-0.160127
-0.181505
-0.177632
-0.170341
-0.134913
-0.093832
-0.050585
0.001499
0.048783
0.093624
0.114196
0.114540
0.154664
0.146077
0.109121
0.055928
0.020467
-0.022601
-0.085938
-0.120682
-0.132067
-0.163136
-0.169395
-0.173799
-0.140506
-0.068264
-0.019526
0.024009
0.070460
0.098890
0.123152
0.147947
0.177752
0.173912
0.152831
0.108506
0.068436
0.009286
-0.025388
-0.060196
-0.121085
-0.153085
-0.147848
-0.149676
-0.121427
-0.076944
-0.041341
-0.011047
0.067732
0.125823
0.156806
0.202964
0.190645
0.151450
0.139305
0.108828
0.079838
0.026013
-0.029336
-0.066191
-0.084522
-0.119583
-0.139594
-0.138780
-0.089284
-0.034252
0.005832
0.057517
0.074841
0.118091
0.176302
0.216112
0.219034
0.211858
0.202870
0.148532
0.092559
0.031169
-0.015194
-0.049771
-0.066416
-0.073804
-0.107067
-0.102770
-0.076193
-0.022459
0.006451
0.054363
0.094217
0.132443
0.163383
0.214249
0.218657
0.228293
0.210634
0.154711
0.123015
0.072403
0.043278
0.016438
-0.012460
-0.046266
-0.046699
-0.077176
-0.065636
0.001540
0.029905
0.063765
0.111158
0.141549
0.170209
0.182164
0.201957
0.207986
0.181540
0.141290
0.102749
0.069542
0.023297
-0.024915
-0.055023
-0.075553
-0.089732
-0.078068
-0.043246
-0.027169
-0.007759
0.069361
0.104416
0.151237
0.173266
0.195122
0.202251
0.183973
0.155339
0.120970
0.084105
0.042332
0.020302
-0.026883
-0.070878
-0.081709
-0.085215
-0.088376
-0.070073
-0.023982
0.001000
0.050556
0.095282
0.140110
0.168022
0.175843
0.172543
0.146802
0.130857
0.093229
0.050319
0.007222
-0.048566
-0.082099
-0.115803
-0.128394
-0.101254
-0.101410
-0.085099
-0.045626
0.001097
0.040113
0.079804
0.121004
0.142353
0.171266
0.149440
0.128818
0.111225
0.077891
0.024481
-0.013510
-0.029926
-0.065890
-0.140613
-0.185327
-0.165727
-0.127814
-0.108577
-0.063258
-0.024099
0.024173
0.059681
0.094389
0.136109
0.145011
0.138928
0.136213
0.114022
0.058788
0.015018
-0.035419
-0.098283
-0.151241
-0.132206
-0.136436
-0.164713
-0.161517
-0.118828
-0.096064
-0.058313
-0.006950
0.022985
0.084616
0.110738
0.141314
0.153917
0.161455
0.119644
0.074866
0.024839
-0.013411
-0.066890
-0.113346
-0.144446
-0.178679
-0.168586
-0.160409
-0.123912
-0.085117
-0.050104
-0.007792
0.031736
0.079786
0.131245
0.143708
0.146684
0.132003
0.126088
0.085403
0.034741
-0.009820
-0.062144
-0.093977
-0.126999
-0.157605
-0.181792
-0.170789
-0.164267
-0.103616
-0.070911
-0.003425
0.038173
0.104735
0.145049
0.161043
0.161480
0.144098
0.113942
0.093948
0.043740
-0.003879
-0.061297
-0.093037
-0.143865
-0.180678
-0.145014
-0.148694
-0.118894
-0.082156
-0.067855
-0.005618
0.036153
0.060800
0.108353
0.155608
0.157455
0.114948
0.100210
0.066249
0.072053
0.032671
-0.053905
-0.072023
-0.110049
-0.137150
-0.150442
-0.143091
-0.136324
-0.093111
-0.050635
-0.029171
0.030990
0.068019
0.079084
0.114913
0.155498
0.143884
0.103228
0.080312
0.043401
-0.016836
-0.057111
-0.077941
-0.113321
-0.137946
-0.165713
-0.147330
-0.137848
-0.104169
-0.074952
-0.011771
0.061008
0.072854
0.053035
0.073363
0.142890
0.145668
0.104773
0.066043
-0.000652
-0.031888
-0.047084
-0.101657
-0.127629
-0.147287
-0.160706
-0.155527
-0.138974
-0.103635
-0.041148
-0.017118
0.012891
0.059220
0.099104
0.104849
0.110025
0.111100
0.082663
0.056854
0.009010
-0.034398
-0.064280
-0.126852
-0.164142
-0.170369
-0.152091
-0.138349
-0.109446
-0.059870
-0.019743
-0.010480
0.017743
0.016785
0.062687
0.109508
0.115537
0.105125
0.085653
0.055378
0.016186
-0.041179
-0.089867
-0.124857
-0.149605
-0.145105
-0.144066
-0.133943
-0.121942
-0.096534
-0.050412
0.006373
0.073163
0.102813
0.127753
0.158585
0.143854
0.123484
0.085322
0.049009
-0.054940
-0.063560
-0.076103
-0.094154
-0.088533
-0.071722
-0.099367
-0.135081
-0.119275
-0.080587
-0.047918
0.029464
0.069676
0.105356
0.103199
0.158257
0.176187
0.156295
0.104707
0.070712
0.037578
-0.026717
-0.064349
-0.124360
-0.150712
-0.143760
-0.123386
-0.111966
-0.080856
-0.039624
0.008472
0.042618
0.093204
0.131890
0.156807
0.173268
0.167176
0.165807
0.150503
0.112101
0.050715
0.007090
-0.037471
-0.095819
-0.144549
-0.165222
-0.174174
-0.169789
-0.140578
-0.099360
-0.047544
0.015333
0.046405
0.089955
0.164637
0.147319
0.131795
0.135480
0.104686
0.064109
0.021051
-0.031844
-0.081991
-0.144317
-0.167730
-0.177741
-0.192874
-0.176265
-0.164233
-0.153485
-0.115748
-0.043129
0.011754
0.043575
0.073846
0.094904
0.110889
0.107876
0.074595
0.036075
0.000874
-0.051403
-0.106204
-0.154102
-0.198138
-0.210556
-0.215428
-0.192520
-0.170703
-0.146680
-0.106741
-0.072215
-0.053348
-0.017054
0.043148
0.087934
0.093525
0.077402
0.058112
0.035061
0.004059
-0.044895
-0.097789
-0.146868
-0.193894
-0.221057
-0.210536
-0.225562
-0.210929
-0.151462
-0.094277
-0.041552
-0.005041
0.002831
0.054158
0.081402
0.072753
0.071555
0.052497
0.003782
-0.017133
-0.048977
-0.115609
-0.146682
-0.167556
-0.181179
-0.191760
-0.177867
-0.166677
-0.152809
-0.148184
-0.087730
-0.026827
-0.004620
0.049380
0.056338
0.095347
0.098588
0.020248
-0.019225
-0.043398
-0.077122
-0.108647
-0.141890
-0.176447
-0.190981
-0.186379
-0.169520
-0.153563
-0.121839
-0.072914
-0.007180
0.078816
0.147753
0.176318
0.186006
0.220591
0.217380
0.213977
0.212422
0.186515
0.165469
0.140990
0.152623
0.163757
0.163406
0.198825
0.240860
0.315992
0.374246
0.420272
0.492851
0.579808
0.666946
0.743597
0.807541
0.853595
0.852080
0.867049
0.821732
0.750096
0.710659
0.746843
0.696491
0.596485
0.525790
0.495695
0.449364
0.412722
0.381835
0.320356
0.332083
0.338415
0.333852
0.322588
0.316530
0.301873
0.273489
0.251470
0.210241
0.139089
0.080890
0.018129
-0.059506
-0.089944
-0.107106
-0.110098
-0.052982
-0.025944
-0.009568
0.023406
0.063446
0.120176
0.136312
0.166335
0.166936
0.179477
0.180324
0.148093
0.089227
0.035754
-0.008877
-0.078810
-0.136907
-0.174851
-0.194965
-0.183250
-0.164069
-0.116020
-0.092755
-0.047104
0.000101
0.029381
0.087139
0.129216
0.149939
0.140669
0.122219
0.101849
0.052477
0.026460
-0.021283
-0.070709
-0.129491
-0.161893
-0.154768
-0.169136
-0.161628
-0.118288
-0.106572
-0.071485
-0.037136
0.006863
0.067588
0.102550
0.104860
0.143631
0.158989
0.125803
0.091760
0.045054
-0.017726
-0.051710
-0.071551
-0.127334
-0.154431
-0.154568
-0.164833
-0.140107
-0.097448
-0.039997
-0.000547
0.019162
0.050565
0.095872
0.129710
0.125200
0.128918
0.111971
0.074902
0.040865
0.020549
-0.019981
-0.066745
-0.091462
-0.125615
-0.144415
-0.151498
-0.135304
-0.096167
-0.031617
0.026945
0.088644
0.102117
0.099140
0.119293
0.194108
0.177099
0.127576
0.113453
0.088621
0.007334
-0.021993
-0.061285
-0.072359
-0.087347
-0.096596
-0.079153
-0.062837
-0.030064
0.014194
0.056051
0.077868
0.109784
0.139765
0.185681
0.202020
0.188241
0.150832
0.118389
0.101353
0.060180
0.006156
-0.032181
-0.065144
-0.094266
-0.092338
-0.070101
-0.028677
0.005209
0.042677
0.083525
0.122004
0.154900
0.178763
0.182505
0.174437
0.191952
0.159071
0.138330
0.104721
0.074280
0.042214
-0.003250
-0.058230
-0.070279
-0.056656
-0.071145
-0.059315
-0.030417
0.001732
0.071802
0.128915
0.177477
0.205222
0.230350
0.225111
0.206736
0.175512
0.130584
0.077461
0.031340
-0.008689
-0.040755
-0.069156
-0.089119
-0.106473
-0.086960
-0.049828
-0.031266
0.001044
0.040452
0.072375
0.126567
0.166961
0.203087
0.188654
0.169641
0.169466
0.134567
0.072592
0.033781
0.005614
-0.046329
-0.095064
-0.105174
-0.125001
-0.124603
-0.079295
-0.056062
-0.007810
0.043241
0.092530
0.151306
0.157309
0.176127
0.179475
0.173090
0.153341
0.102545
0.056329
0.003653
-0.038487
-0.082978
-0.119186
-0.138974
-0.145199
-0.148893
-0.129925
